Time,LAT
0.000,-23.38
0.001,-14.37
0.002,-16.37
0.003,-2.384
0.004,6.632
0.005,26.62
0.006,24.63
0.007,16.61
0.008,12.62
0.009,11.62
0.010,8.621
0.011,-0.3632
0.012,-3.379
0.013,-0.3632
0.014,3.632
0.015,3.632
0.016,0.6316
0.017,-6.379
0.018,-14.37
0.019,-6.379
0.020,-9.379
0.021,-12.38
0.022,-7.374
0.023,-4.389
0.024,-5.384
0.025,2.621
0.026,9.616
0.027,14.62
0.028,14.62
0.029,14.62
0.030,17.64
0.031,21.63
0.032,22.63
0.033,16.61
0.034,8.621
0.035,8.621
0.036,0.6316
0.037,-8.384
0.038,-21.38
0.039,-27.38
0.040,-27.38
0.041,-24.38
0.042,-29.38
0.043,-33.38
0.044,-36.36
0.045,-29.38
0.046,-21.38
0.047,-12.38
0.048,-8.384
0.049,2.621
0.050,22.63
0.051,29.62
0.052,22.63
0.053,18.63
0.054,19.63
0.055,26.62
0.056,28.63
0.057,26.62
0.058,18.63
0.059,11.62
0.060,10.63
0.061,3.632
0.062,-0.3632
0.063,-7.374
0.064,-11.38
0.065,-17.37
0.066,-24.38
0.067,-27.38
0.068,-24.38
0.069,-16.37
0.070,-12.38
0.071,-12.38
0.072,-18.36
0.073,-10.37
0.074,1.626
0.075,6.632
0.076,6.632
0.077,4.626
0.078,8.621
0.079,13.61
0.080,17.64
0.081,24.63
0.082,17.64
0.083,15.62
0.084,15.62
0.085,15.62
0.086,15.62
0.087,8.621
0.088,2.621
0.089,-4.389
0.090,-3.379
0.091,-10.37
0.092,-19.39
0.093,-17.37
0.094,-11.38
0.095,-10.37
0.096,-2.384
0.097,2.621
0.098,0.6316
0.099,-5.384
0.100,-18.36
0.101,-20.38
0.102,-10.37
0.103,-3.379
0.104,-1.389
0.105,-1.389
0.106,-2.384
0.107,-14.37
0.108,-24.38
0.109,-16.37
0.110,-10.37
0.111,-4.389
0.112,0.6316
0.113,17.64
0.114,41.62
0.115,49.61
0.116,41.62
0.117,36.63
0.118,24.63
0.119,18.63
0.120,6.632
0.121,-11.38
0.122,-22.39
0.123,-30.38
0.124,-30.38
0.125,-23.38
0.126,-11.38
0.127,-3.379
0.128,-3.379
0.129,-1.389
0.130,8.621
0.131,21.63
0.132,23.62
0.133,18.63
0.134,11.62
0.135,3.632
0.136,-2.384
0.137,-5.384
0.138,-9.379
0.139,-11.38
0.140,-20.38
0.141,-26.38
0.142,-21.38
0.143,-5.384
0.144,0.6316
0.145,-0.3632
0.146,-10.37
0.147,-4.389
0.148,4.626
0.149,8.621
0.150,3.632
0.151,-0.3632
0.152,-0.3632
0.153,-6.379
0.154,-7.374
0.155,-15.38
0.156,-15.38
0.157,-19.39
0.158,-20.38
0.159,-27.38
0.160,-19.39
0.161,-13.37
0.162,-7.374
0.163,9.616
0.164,27.62
0.165,44.62
0.166,49.61
0.167,54.63
0.168,50.62
0.169,39.63
0.170,19.63
0.171,5.621
0.172,-5.384
0.173,-16.37
0.174,-40.39
0.175,-55.39
0.176,-55.39
0.177,-44.38
0.178,-31.37
0.179,-20.38
0.180,-4.389
0.181,13.61
0.182,43.63
0.183,53.64
0.184,51.62
0.185,39.63
0.186,23.62
0.187,10.63
0.188,-2.384
0.189,-14.37
0.190,-21.38
0.191,-10.37
0.192,3.632
0.193,2.621
0.194,-2.384
0.195,-2.384
0.196,-4.389
0.197,-8.384
0.198,-20.38
0.199,-28.37
0.200,-29.38
0.201,-27.38
0.202,-26.38
0.203,-18.36
0.204,-19.39
0.205,-13.37
0.206,1.626
0.207,19.63
0.208,24.63
0.209,22.63
0.210,32.62
0.211,42.63
0.212,41.62
0.213,32.62
0.214,15.62
0.215,-1.389
0.216,-6.379
0.217,-6.379
0.218,-1.389
0.219,-2.384
0.220,-4.389
0.221,-4.389
0.222,-11.38
0.223,-22.39
0.224,-32.37
0.225,-37.39
0.226,-33.38
0.227,-26.38
0.228,-27.38
0.229,-30.38
0.230,-26.38
0.231,-10.37
0.232,11.62
0.233,30.62
0.234,37.63
0.235,40.63
0.236,44.62
0.237,50.62
0.238,36.63
0.239,16.61
0.240,-1.389
0.241,-11.38
0.242,-8.384
0.243,-1.389
0.244,-3.379
0.245,-2.384
0.246,3.632
0.247,11.62
0.248,13.61
0.249,3.632
0.250,-8.384
0.251,-14.37
0.252,-14.37
0.253,-12.38
0.254,-15.38
0.255,-23.38
0.256,-25.37
0.257,-19.39
0.258,-10.37
0.259,-2.384
0.260,1.626
0.261,0.6316
0.262,2.621
0.263,2.621
0.264,-6.379
0.265,-18.36
0.266,-25.37
0.267,-14.37
0.268,-4.389
0.269,0.6316
0.270,1.626
0.271,15.62
0.272,15.62
0.273,17.64
0.274,20.62
0.275,21.63
0.276,19.63
0.277,19.63
0.278,20.62
0.279,16.61
0.280,4.626
0.281,-19.39
0.282,-28.37
0.283,-35.37
0.284,-34.37
0.285,-39.38
0.286,-35.37
0.287,-36.36
0.288,-26.38
0.289,-1.389
0.290,31.61
0.291,46.63
0.292,44.62
0.293,39.63
0.294,35.64
0.295,37.63
0.296,28.63
0.297,6.632
0.298,-8.384
0.299,-20.38
0.300,-21.38
0.301,-14.37
0.302,-14.37
0.303,-4.389
0.304,4.626
0.305,2.621
0.306,8.621
0.307,15.62
0.308,22.63
0.309,21.63
0.310,16.61
0.311,1.626
0.312,-5.384
0.313,-18.36
0.314,-33.38
0.315,-43.37
0.316,-56.38
0.317,-59.38
0.318,-49.37
0.319,-37.39
0.320,-20.38
0.321,-0.3632
0.322,28.63
0.323,38.62
0.324,49.61
0.325,62.62
0.326,64.63
0.327,53.64
0.328,35.64
0.329,20.62
0.330,7.626
0.331,-2.384
0.332,-10.37
0.333,-14.37
0.334,-16.37
0.335,-18.36
0.336,-25.37
0.337,-27.38
0.338,-29.38
0.339,-31.37
0.340,-33.38
0.341,-31.37
0.342,-37.39
0.343,-36.36
0.344,-25.37
0.345,10.63
0.346,36.63
0.347,34.61
0.348,26.62
0.349,18.63
0.350,20.62
0.351,19.63
0.352,17.64
0.353,19.63
0.354,16.61
0.355,12.62
0.356,15.62
0.357,14.62
0.358,8.621
0.359,4.626
0.360,-3.379
0.361,-15.38
0.362,-24.38
0.363,-33.38
0.364,-37.39
0.365,-39.38
0.366,-38.38
0.367,-28.37
0.368,-10.37
0.369,6.632
0.370,15.62
0.371,23.62
0.372,28.63
0.373,32.62
0.374,30.62
0.375,22.63
0.376,7.626
0.377,1.626
0.378,-5.384
0.379,-13.37
0.380,-17.37
0.381,-30.38
0.382,-36.36
0.383,-32.37
0.384,-27.38
0.385,-12.38
0.386,12.62
0.387,32.62
0.388,39.63
0.389,39.63
0.390,42.63
0.391,35.64
0.392,28.63
0.393,17.64
0.394,5.621
0.395,-2.384
0.396,-19.39
0.397,-26.38
0.398,-26.38
0.399,-31.37
0.400,-42.38
0.401,-51.38
0.402,-35.37
0.403,-13.37
0.404,-2.384
0.405,10.63
0.406,19.63
0.407,30.62
0.408,40.63
0.409,39.63
0.410,32.62
0.411,16.61
0.412,-0.3632
0.413,-14.37
0.414,-27.38
0.415,-34.37
0.416,-32.37
0.417,-23.38
0.418,-22.39
0.419,-19.39
0.420,-23.38
0.421,-14.37
0.422,3.632
0.423,22.63
0.424,47.62
0.425,44.62
0.426,35.64
0.427,21.63
0.428,19.63
0.429,12.62
0.430,4.626
0.431,-1.389
0.432,-2.384
0.433,-0.3632
0.434,-3.379
0.435,-1.389
0.436,-0.3632
0.437,-4.389
0.438,-5.384
0.439,-4.389
0.440,-4.389
0.441,-8.384
0.442,-19.39
0.443,-20.38
0.444,-23.38
0.445,-24.38
0.446,-24.38
0.447,-16.37
0.448,-13.37
0.449,-13.37
0.450,-17.37
0.451,-11.38
0.452,-3.379
0.453,10.63
0.454,12.62
0.455,20.62
0.456,34.61
0.457,30.62
0.458,29.62
0.459,28.63
0.460,22.63
0.461,15.62
0.462,10.63
0.463,12.62
0.464,4.626
0.465,-2.384
0.466,-7.374
0.467,-9.379
0.468,-12.38
0.469,-23.38
0.470,-37.39
0.471,-46.37
0.472,-42.38
0.473,-35.37
0.474,-28.37
0.475,-7.374
0.476,1.626
0.477,8.621
0.478,27.62
0.479,30.62
0.480,36.63
0.481,35.64
0.482,28.63
0.483,16.61
0.484,6.632
0.485,-2.384
0.486,-2.384
0.487,3.632
0.488,14.62
0.489,17.64
0.490,11.62
0.491,1.626
0.492,-0.3632
0.493,-0.3632
0.494,-10.37
0.495,-25.37
0.496,-32.37
0.497,-40.39
0.498,-48.38
0.499,-40.39
0.500,-34.37
0.501,-15.38
0.502,5.621
0.503,21.63
0.504,30.62
0.505,32.62
0.506,32.62
0.507,30.62
0.508,31.61
0.509,18.63
0.510,7.626
0.511,-3.379
0.512,-19.39
0.513,-30.38
0.514,-34.37
0.515,-36.36
0.516,-40.39
0.517,-32.37
0.518,-7.374
0.519,24.63
0.520,49.61
0.521,56.62
0.522,54.63
0.523,46.63
0.524,30.62
0.525,20.62
0.526,10.63
0.527,-1.389
0.528,-10.37
0.529,-16.37
0.530,-19.39
0.531,-25.37
0.532,-32.37
0.533,-35.37
0.534,-23.38
0.535,-17.37
0.536,-7.374
0.537,-12.38
0.538,-13.37
0.539,-12.38
0.540,-13.37
0.541,-18.36
0.542,-13.37
0.543,-13.37
0.544,-8.384
0.545,-5.384
0.546,-1.389
0.547,10.63
0.548,20.62
0.549,23.62
0.550,22.63
0.551,27.62
0.552,34.61
0.553,35.64
0.554,28.63
0.555,16.61
0.556,7.626
0.557,4.626
0.558,-1.389
0.559,-4.389
0.560,-5.384
0.561,-11.38
0.562,-10.37
0.563,-13.37
0.564,-10.37
0.565,-12.38
0.566,-12.38
0.567,-12.38
0.568,-12.38
0.569,-10.37
0.570,-10.37
0.571,-8.384
0.572,-5.384
0.573,-5.384
0.574,-1.389
0.575,0.6316
0.576,-1.389
0.577,-2.384
0.578,-4.389
0.579,0.6316
0.580,4.626
0.581,-1.389
0.582,-11.38
0.583,-14.37
0.584,-10.37
0.585,-8.384
0.586,-4.389
0.587,-1.389
0.588,2.621
0.589,8.621
0.590,-0.3632
0.591,2.621
0.592,8.621
0.593,12.62
0.594,14.62
0.595,18.63
0.596,26.62
0.597,22.63
0.598,19.63
0.599,14.62
0.600,13.61
0.601,5.621
0.602,1.626
0.603,-0.3632
0.604,-8.384
0.605,-12.38
0.606,-21.38
0.607,-24.38
0.608,-28.37
0.609,-26.38
0.610,-20.38
0.611,-13.37
0.612,-6.379
0.613,0.6316
0.614,-0.3632
0.615,3.632
0.616,0.6316
0.617,-7.374
0.618,-11.38
0.619,-8.384
0.620,-14.37
0.621,-10.37
0.622,-2.384
0.623,8.621
0.624,32.62
0.625,42.63
0.626,45.62
0.627,43.63
0.628,34.61
0.629,16.61
0.630,6.632
0.631,-2.384
0.632,-6.379
0.633,-10.37
0.634,-9.379
0.635,-13.37
0.636,-15.38
0.637,-13.37
0.638,-16.37
0.639,-15.38
0.640,-9.379
0.641,-9.379
0.642,-7.374
0.643,-6.379
0.644,-4.389
0.645,-5.384
0.646,-3.379
0.647,0.6316
0.648,-3.379
0.649,-1.389
0.650,-4.389
0.651,-3.379
0.652,-1.389
0.653,-0.3632
0.654,0.6316
0.655,0.6316
0.656,1.626
0.657,0.6316
0.658,0.6316
0.659,0.6316
0.660,-1.389
0.661,-2.384
0.662,1.626
0.663,-1.389
0.664,0.6316
0.665,0.6316
0.666,0.6316
0.667,-0.3632
0.668,-3.379
0.669,1.626
0.670,-0.3632
0.671,-3.379
0.672,-3.379
0.673,-9.379
0.674,-9.379
0.675,-11.38
0.676,-17.37
0.677,-23.38
0.678,-25.37
0.679,-29.38
0.680,-19.39
0.681,-7.374
0.682,0.6316
0.683,0.6316
0.684,-3.379
0.685,-12.38
0.686,-44.38
0.687,-63.38
0.688,-53.37
0.689,-29.38
0.690,-3.379
0.691,14.62
0.692,19.63
0.693,18.63
0.694,-39.38
0.695,-64.37
0.696,-32.37
0.697,5.621
0.698,24.63
0.699,-77.38
0.700,-229.4
0.701,-291.4
0.702,-203.4
0.703,-136.4
0.704,-46.37
0.705,7.626
0.706,-81.38
0.707,-27.38
0.708,44.62
0.709,44.62
0.710,-28.37
0.711,90.63
0.712,216.6
0.713,264.6
0.714,302.6
0.715,340.6
0.716,280.6
0.717,142.6
0.718,-34.37
0.719,-246.4
0.720,-164.4
0.721,-28.37
0.722,34.61
0.723,21.63
0.724,13.61
0.725,55.63
0.726,155.6
0.727,227.6
0.728,121.6
0.729,78.63
0.730,110.6
0.731,211.6
0.732,232.6
0.733,237.6
0.734,111.6
0.735,-67.37
0.736,-139.4
0.737,-152.4
0.738,-104.4
0.739,-91.39
0.740,-55.39
0.741,-240.4
0.742,-296.4
0.743,-185.4
0.744,-13.37
0.745,-24.38
0.746,-37.39
0.747,16.61
0.748,83.62
0.749,126.6
0.750,180.6
0.751,143.6
0.752,8.621
0.753,-96.38
0.754,-81.38
0.755,-43.37
0.756,-9.379
0.757,10.63
0.758,14.62
0.759,95.62
0.760,50.62
0.761,5.621
0.762,-80.38
0.763,-115.4
0.764,-61.37
0.765,16.61
0.766,59.62
0.767,24.63
0.768,-6.379
0.769,0.6316
0.770,19.63
0.771,86.62
0.772,147.6
0.773,156.6
0.774,126.6
0.775,91.63
0.776,49.61
0.777,13.61
0.778,-1.389
0.779,-29.38
0.780,-3.379
0.781,-3.379
0.782,-23.38
0.783,-61.37
0.784,-119.4
0.785,-198.4
0.786,-238.4
0.787,-217.4
0.788,-178.4
0.789,-164.4
0.790,-169.4
0.791,-158.4
0.792,-172.4
0.793,-156.4
0.794,-127.4
0.795,-100.4
0.796,-101.4
0.797,-34.37
0.798,32.62
0.799,112.6
0.800,191.6
0.801,237.6
0.802,259.6
0.803,231.6
0.804,207.6
0.805,160.6
0.806,67.61
0.807,12.62
0.808,-18.36
0.809,-63.38
0.810,-35.37
0.811,-22.39
0.812,14.62
0.813,26.62
0.814,28.63
0.815,49.61
0.816,16.61
0.817,-119.4
0.818,-325.4
0.819,-284.4
0.820,-185.4
0.821,-59.38
0.822,92.62
0.823,224.6
0.824,245.6
0.825,188.6
0.826,132.6
0.827,143.6
0.828,172.6
0.829,126.6
0.830,149.6
0.831,120.6
0.832,8.621
0.833,-15.38
0.834,-64.37
0.835,-96.38
0.836,-93.38
0.837,-92.38
0.838,-61.37
0.839,-51.38
0.840,-71.37
0.841,-85.37
0.842,-178.4
0.843,-196.4
0.844,-146.4
0.845,-107.4
0.846,-204.4
0.847,-215.4
0.848,-112.4
0.849,-48.38
0.850,55.63
0.851,176.6
0.852,198.6
0.853,180.6
0.854,152.6
0.855,112.6
0.856,125.6
0.857,139.6
0.858,114.6
0.859,109.6
0.860,90.63
0.861,80.62
0.862,35.64
0.863,17.64
0.864,-3.379
0.865,-9.379
0.866,-29.38
0.867,-60.38
0.868,-113.4
0.869,-149.4
0.870,-215.4
0.871,-258.4
0.872,-260.4
0.873,-210.4
0.874,-98.38
0.875,-7.374
0.876,-105.4
0.877,-147.4
0.878,-183.4
0.879,-91.39
0.880,50.62
0.881,187.6
0.882,294.6
0.883,344.6
0.884,323.6
0.885,289.6
0.886,239.6
0.887,191.6
0.888,147.6
0.889,122.6
0.890,66.62
0.891,38.62
0.892,4.626
0.893,-40.39
0.894,-111.4
0.895,-154.4
0.896,-175.4
0.897,-151.4
0.898,-157.4
0.899,-138.4
0.900,-155.4
0.901,-137.4
0.902,-95.38
0.903,-55.39
0.904,-32.37
0.905,-22.39
0.906,-42.38
0.907,12.62
0.908,84.61
0.909,112.6
0.910,133.6
0.911,112.6
0.912,40.63
0.913,13.61
0.914,-2.384
0.915,-39.38
0.916,-173.4
0.917,-300.4
0.918,-238.4
0.919,-87.38
0.920,57.63
0.921,40.63
0.922,-65.38
0.923,-147.4
0.924,-169.4
0.925,-134.4
0.926,70.61
0.927,125.6
0.928,-13.37
0.929,-43.37
0.930,-88.37
0.931,-159.4
0.932,-95.38
0.933,53.64
0.934,222.6
0.935,314.6
0.936,416.6
0.937,420.6
0.938,370.6
0.939,239.6
0.940,199.6
0.941,183.6
0.942,119.6
0.943,119.6
0.944,112.6
0.945,102.6
0.946,80.62
0.947,50.62
0.948,18.63
0.949,-21.38
0.950,-59.38
0.951,-85.37
0.952,-109.4
0.953,-118.4
0.954,-141.4
0.955,-167.4
0.956,-170.4
0.957,-152.4
0.958,-119.4
0.959,-106.4
0.960,-90.39
0.961,-65.38
0.962,-76.39
0.963,-70.37
0.964,-65.38
0.965,-41.38
0.966,-19.39
0.967,-7.374
0.968,8.621
0.969,8.621
0.970,20.62
0.971,22.63
0.972,14.62
0.973,-5.384
0.974,-48.38
0.975,-114.4
0.976,-112.4
0.977,-110.4
0.978,-98.38
0.979,-146.4
0.980,-234.4
0.981,-175.4
0.982,-76.39
0.983,53.64
0.984,138.6
0.985,144.6
0.986,90.63
0.987,75.63
0.988,109.6
0.989,135.6
0.990,187.6
0.991,196.6
0.992,180.6
0.993,108.6
0.994,28.63
0.995,-35.37
0.996,-67.37
0.997,-130.4
0.998,-200.4
0.999,-248.4
1.000,-175.4
1.001,-68.37
1.002,32.62
1.003,77.62
1.004,56.62
1.005,72.63
1.006,77.62
1.007,-42.38
1.008,-49.37
1.009,-67.37
1.010,32.62
1.011,181.6
1.012,249.6
1.013,269.6
1.014,242.6
1.015,178.6
1.016,103.6
1.017,49.61
1.018,-7.374
1.019,-40.39
1.020,-75.38
1.021,-111.4
1.022,-134.4
1.023,-155.4
1.024,-141.4
1.025,-96.38
1.026,-70.37
1.027,-47.38
1.028,-60.38
1.029,-63.38
1.030,-59.38
1.031,-87.38
1.032,-116.4
1.033,-103.4
1.034,-59.38
1.035,-67.37
1.036,-83.38
1.037,-105.4
1.038,-71.37
1.039,-47.38
1.040,56.62
1.041,133.6
1.042,214.6
1.043,247.6
1.044,193.6
1.045,154.6
1.046,146.6
1.047,95.62
1.048,50.62
1.049,-39.38
1.050,-119.4
1.051,-81.38
1.052,-44.38
1.053,-34.37
1.054,-175.4
1.055,-289.4
1.056,-196.4
1.057,-103.4
1.058,-74.38
1.059,-160.4
1.060,-85.37
1.061,46.63
1.062,136.6
1.063,271.6
1.064,326.6
1.065,303.6
1.066,242.6
1.067,194.6
1.068,119.6
1.069,96.63
1.070,80.62
1.071,50.62
1.072,-1.389
1.073,-43.37
1.074,-127.4
1.075,-145.4
1.076,-95.38
1.077,-83.38
1.078,-92.38
1.079,-70.37
1.080,-61.37
1.081,-73.39
1.082,-138.4
1.083,-245.4
1.084,-202.4
1.085,-75.38
1.086,47.62
1.087,100.6
1.088,-37.39
1.089,-18.36
1.090,16.61
1.091,-17.37
1.092,-57.38
1.093,-124.4
1.094,-77.38
1.095,55.63
1.096,171.6
1.097,288.6
1.098,276.6
1.099,180.6
1.100,123.6
1.101,50.62
1.102,39.63
1.103,20.62
1.104,-21.38
1.105,-52.37
1.106,-76.39
1.107,-56.38
1.108,-14.37
1.109,2.621
1.110,20.62
1.111,42.63
1.112,-48.38
1.113,-43.37
1.114,-48.38
1.115,-107.4
1.116,-165.4
1.117,-117.4
1.118,-34.37
1.119,30.62
1.120,96.63
1.121,158.6
1.122,178.6
1.123,130.6
1.124,79.63
1.125,26.62
1.126,6.632
1.127,-76.39
1.128,-131.4
1.129,-133.4
1.130,-131.4
1.131,-147.4
1.132,-134.4
1.133,-81.38
1.134,-39.38
1.135,-107.4
1.136,-38.38
1.137,56.62
1.138,145.6
1.139,109.6
1.140,113.6
1.141,108.6
1.142,124.6
1.143,86.62
1.144,5.621
1.145,-25.37
1.146,-93.38
1.147,-119.4
1.148,-134.4
1.149,-75.38
1.150,-53.37
1.151,-34.37
1.152,-117.4
1.153,-69.38
1.154,-17.37
1.155,-119.4
1.156,-38.38
1.157,85.63
1.158,191.6
1.159,249.6
1.160,164.6
1.161,137.6
1.162,94.63
1.163,-41.38
1.164,-24.38
1.165,21.63
1.166,52.61
1.167,44.62
1.168,-38.38
1.169,-75.38
1.170,-97.37
1.171,-137.4
1.172,-115.4
1.173,-68.37
1.174,-107.4
1.175,-93.38
1.176,-151.4
1.177,-103.4
1.178,-15.38
1.179,100.6
1.180,171.6
1.181,240.6
1.182,207.6
1.183,136.6
1.184,37.63
1.185,-45.38
1.186,-26.38
1.187,21.63
1.188,64.63
1.189,74.62
1.190,1.626
1.191,-33.38
1.192,-47.38
1.193,-28.37
1.194,-7.374
1.195,-27.38
1.196,-86.37
1.197,-182.4
1.198,-207.4
1.199,-176.4
1.200,-101.4
1.201,19.63
1.202,56.62
1.203,12.62
1.204,76.63
1.205,144.6
1.206,207.6
1.207,272.6
1.208,234.6
1.209,122.6
1.210,5.621
1.211,-27.38
1.212,-38.38
1.213,-41.38
1.214,-23.38
1.215,-62.38
1.216,-123.4
1.217,-133.4
1.218,-145.4
1.219,-119.4
1.220,-53.37
1.221,-21.38
1.222,-26.38
1.223,-10.37
1.224,35.64
1.225,52.61
1.226,108.6
1.227,156.6
1.228,167.6
1.229,111.6
1.230,68.62
1.231,32.62
1.232,-152.4
1.233,-271.4
1.234,-205.4
1.235,-143.4
1.236,-83.38
1.237,-88.37
1.238,16.61
1.239,-7.374
1.240,14.62
1.241,76.63
1.242,131.6
1.243,167.6
1.244,146.6
1.245,65.62
1.246,0.6316
1.247,-119.4
1.248,-186.4
1.249,-241.4
1.250,-231.4
1.251,-97.37
1.252,40.63
1.253,151.6
1.254,148.6
1.255,113.6
1.256,99.61
1.257,19.63
1.258,-47.38
1.259,-238.4
1.260,-266.4
1.261,-135.4
1.262,75.63
1.263,245.6
1.264,332.6
1.265,330.6
1.266,275.6
1.267,198.6
1.268,160.6
1.269,97.63
1.270,-106.4
1.271,-284.4
1.272,-326.4
1.273,-236.4
1.274,-101.4
1.275,70.61
1.276,148.6
1.277,161.6
1.278,113.6
1.279,59.62
1.280,14.62
1.281,38.62
1.282,19.63
1.283,0.6316
1.284,-34.37
1.285,-115.4
1.286,-106.4
1.287,-179.4
1.288,-137.4
1.289,-75.38
1.290,16.61
1.291,23.62
1.292,11.62
1.293,-2.384
1.294,16.61
1.295,36.63
1.296,16.61
1.297,-158.4
1.298,-206.4
1.299,-192.4
1.300,-135.4
1.301,4.626
1.302,106.6
1.303,181.6
1.304,259.6
1.305,292.6
1.306,233.6
1.307,158.6
1.308,120.6
1.309,56.62
1.310,-3.379
1.311,-3.379
1.312,-33.38
1.313,-175.4
1.314,-147.4
1.315,-103.4
1.316,-43.37
1.317,6.632
1.318,56.62
1.319,42.63
1.320,38.62
1.321,29.62
1.322,18.63
1.323,-18.36
1.324,-32.37
1.325,-61.37
1.326,-112.4
1.327,-206.4
1.328,-228.4
1.329,-185.4
1.330,-96.38
1.331,-15.38
1.332,27.62
1.333,50.62
1.334,43.63
1.335,58.63
1.336,114.6
1.337,134.6
1.338,106.6
1.339,130.6
1.340,115.6
1.341,66.62
1.342,24.63
1.343,-41.38
1.344,-103.4
1.345,-189.4
1.346,-289.4
1.347,-429.4
1.348,-295.4
1.349,-159.4
1.350,-17.37
1.351,44.62
1.352,-79.37
1.353,-61.37
1.354,107.6
1.355,270.6
1.356,198.6
1.357,108.6
1.358,96.63
1.359,22.63
1.360,3.632
1.361,142.6
1.362,241.6
1.363,302.6
1.364,301.6
1.365,160.6
1.366,134.6
1.367,156.6
1.368,168.6
1.369,188.6
1.370,156.6
1.371,46.63
1.372,-49.37
1.373,-84.38
1.374,-87.38
1.375,-116.4
1.376,-106.4
1.377,-124.4
1.378,-160.4
1.379,-223.4
1.380,-224.4
1.381,-214.4
1.382,-153.4
1.383,-88.37
1.384,-101.4
1.385,-59.38
1.386,32.62
1.387,112.6
1.388,127.6
1.389,115.6
1.390,42.63
1.391,17.64
1.392,13.61
1.393,15.62
1.394,-34.37
1.395,-72.36
1.396,-52.37
1.397,12.62
1.398,46.63
1.399,6.632
1.400,-95.38
1.401,-63.38
1.402,-61.37
1.403,-103.4
1.404,-71.37
1.405,-9.379
1.406,61.63
1.407,93.63
1.408,92.62
1.409,65.62
1.410,8.621
1.411,21.63
1.412,20.62
1.413,2.621
1.414,-39.38
1.415,-119.4
1.416,-121.4
1.417,-71.37
1.418,-34.37
1.419,21.63
1.420,19.63
1.421,43.63
1.422,108.6
1.423,118.6
1.424,35.64
1.425,18.63
1.426,-7.374
1.427,-99.38
1.428,-85.37
1.429,-13.37
1.430,-46.37
1.431,-77.38
1.432,-164.4
1.433,-235.4
1.434,-239.4
1.435,-52.37
1.436,124.6
1.437,231.6
1.438,332.6
1.439,321.6
1.440,352.6
1.441,286.6
1.442,195.6
1.443,101.6
1.444,-32.37
1.445,-179.4
1.446,-330.4
1.447,-359.4
1.448,-201.4
1.449,-144.4
1.450,-20.38
1.451,37.63
1.452,-51.38
1.453,-66.38
1.454,-43.37
1.455,-139.4
1.456,-252.4
1.457,-161.4
1.458,-45.38
1.459,131.6
1.460,290.6
1.461,372.6
1.462,363.6
1.463,323.6
1.464,292.6
1.465,295.6
1.466,222.6
1.467,121.6
1.468,34.61
1.469,-61.37
1.470,-105.4
1.471,-120.4
1.472,-138.4
1.473,-115.4
1.474,-97.37
1.475,-83.38
1.476,-74.38
1.477,-70.37
1.478,-72.36
1.479,-74.38
1.480,-99.38
1.481,-163.4
1.482,-271.4
1.483,-260.4
1.484,-187.4
1.485,-110.4
1.486,-87.38
1.487,7.626
1.488,87.61
1.489,168.6
1.490,226.6
1.491,229.6
1.492,195.6
1.493,114.6
1.494,63.62
1.495,76.63
1.496,69.62
1.497,8.621
1.498,-53.37
1.499,-103.4
1.500,-154.4
1.501,-127.4
1.502,-66.38
1.503,-21.38
1.504,-39.38
1.505,-200.4
1.506,-269.4
1.507,-168.4
1.508,-35.37
1.509,58.63
1.510,122.6
1.511,57.63
1.512,-37.39
1.513,-35.37
1.514,44.62
1.515,157.6
1.516,218.6
1.517,208.6
1.518,195.6
1.519,111.6
1.520,72.63
1.521,42.63
1.522,-13.37
1.523,4.626
1.524,-27.38
1.525,-92.38
1.526,-113.4
1.527,-147.4
1.528,-168.4
1.529,-83.38
1.530,8.621
1.531,88.61
1.532,124.6
1.533,126.6
1.534,79.63
1.535,66.62
1.536,70.61
1.537,32.62
1.538,-9.379
1.539,-120.4
1.540,-141.4
1.541,-121.4
1.542,-65.38
1.543,0.6316
1.544,-104.4
1.545,-234.4
1.546,-267.4
1.547,-253.4
1.548,-199.4
1.549,-154.4
1.550,52.61
1.551,209.6
1.552,282.6
1.553,205.6
1.554,211.6
1.555,218.6
1.556,256.6
1.557,196.6
1.558,59.62
1.559,-3.379
1.560,-50.37
1.561,-14.37
1.562,-4.389
1.563,28.63
1.564,84.61
1.565,61.63
1.566,23.62
1.567,23.62
1.568,-51.38
1.569,-30.38
1.570,38.62
1.571,22.63
1.572,-39.38
1.573,-51.38
1.574,-67.37
1.575,-17.37
1.576,-28.37
1.577,-62.38
1.578,-204.4
1.579,-331.4
1.580,-258.4
1.581,-106.4
1.582,-13.37
1.583,82.63
1.584,94.63
1.585,77.62
1.586,128.6
1.587,142.6
1.588,172.6
1.589,142.6
1.590,132.6
1.591,140.6
1.592,113.6
1.593,42.63
1.594,-11.38
1.595,-83.38
1.596,-163.4
1.597,-167.4
1.598,-174.4
1.599,-128.4
1.600,-145.4
1.601,-117.4
1.602,-0.3632
1.603,66.62
1.604,27.62
1.605,-53.37
1.606,-41.38
1.607,-87.38
1.608,18.63
1.609,172.6
1.610,210.6
1.611,181.6
1.612,111.6
1.613,60.63
1.614,55.63
1.615,53.64
1.616,39.63
1.617,3.632
1.618,-102.4
1.619,-128.4
1.620,-197.4
1.621,-353.4
1.622,-368.4
1.623,-277.4
1.624,-174.4
1.625,-151.4
1.626,-169.4
1.627,14.62
1.628,227.6
1.629,288.6
1.630,285.6
1.631,271.6
1.632,229.6
1.633,239.6
1.634,270.6
1.635,271.6
1.636,145.6
1.637,40.63
1.638,-7.374
1.639,-69.38
1.640,-126.4
1.641,-99.38
1.642,-56.38
1.643,-2.384
1.644,43.63
1.645,-35.37
1.646,-48.38
1.647,-57.38
1.648,-47.38
1.649,-114.4
1.650,-200.4
1.651,-243.4
1.652,-151.4
1.653,-38.38
1.654,24.63
1.655,66.62
1.656,86.62
1.657,88.61
1.658,62.62
1.659,103.6
1.660,102.6
1.661,104.6
1.662,76.63
1.663,58.63
1.664,42.63
1.665,14.62
1.666,-91.39
1.667,-112.4
1.668,-3.379
1.669,53.64
1.670,33.62
1.671,-48.38
1.672,-110.4
1.673,-67.37
1.674,55.63
1.675,60.63
1.676,44.62
1.677,-42.38
1.678,-103.4
1.679,-59.38
1.680,-68.37
1.681,-132.4
1.682,-139.4
1.683,-126.4
1.684,-83.38
1.685,-170.4
1.686,-248.4
1.687,-146.4
1.688,16.61
1.689,116.6
1.690,205.6
1.691,274.6
1.692,288.6
1.693,264.6
1.694,169.6
1.695,108.6
1.696,24.63
1.697,-81.38
1.698,-317.4
1.699,-506.4
1.700,-337.4
1.701,-79.37
1.702,96.63
1.703,126.6
1.704,-19.39
1.705,-43.37
1.706,-59.38
1.707,-112.4
1.708,140.6
1.709,260.6
1.710,260.6
1.711,200.6
1.712,292.6
1.713,253.6
1.714,266.6
1.715,174.6
1.716,113.6
1.717,8.621
1.718,-71.37
1.719,-109.4
1.720,-191.4
1.721,-273.4
1.722,-328.4
1.723,-216.4
1.724,-53.37
1.725,5.621
1.726,97.63
1.727,134.6
1.728,195.6
1.729,205.6
1.730,139.6
1.731,50.62
1.732,18.63
1.733,-75.38
1.734,-142.4
1.735,-146.4
1.736,-113.4
1.737,-109.4
1.738,-207.4
1.739,-155.4
1.740,-32.37
1.741,36.63
1.742,37.63
1.743,-25.37
1.744,-6.379
1.745,60.63
1.746,26.62
1.747,-14.37
1.748,-10.37
1.749,22.63
1.750,-39.38
1.751,-26.38
1.752,-45.38
1.753,-104.4
1.754,-123.4
1.755,-70.37
1.756,69.62
1.757,-0.3632
1.758,36.63
1.759,163.6
1.760,204.6
1.761,231.6
1.762,241.6
1.763,173.6
1.764,95.62
1.765,15.62
1.766,-22.39
1.767,-33.38
1.768,-55.39
1.769,-63.38
1.770,-78.38
1.771,-95.38
1.772,-189.4
1.773,-279.4
1.774,-285.4
1.775,-186.4
1.776,-87.38
1.777,-7.374
1.778,107.6
1.779,98.62
1.780,12.62
1.781,-205.4
1.782,-265.4
1.783,-111.4
1.784,117.6
1.785,245.6
1.786,237.6
1.787,164.6
1.788,224.6
1.789,298.6
1.790,300.6
1.791,72.63
1.792,-59.38
1.793,46.63
1.794,67.61
1.795,76.63
1.796,-158.4
1.797,-285.4
1.798,-333.4
1.799,-292.4
1.800,-209.4
1.801,-139.4
1.802,5.621
1.803,144.6
1.804,247.6
1.805,251.6
1.806,112.6
1.807,-47.38
1.808,-136.4
1.809,-255.4
1.810,-194.4
1.811,88.61
1.812,119.6
1.813,173.6
1.814,187.6
1.815,214.6
1.816,263.6
1.817,263.6
1.818,195.6
1.819,82.63
1.820,-71.37
1.821,-132.4
1.822,-160.4
1.823,-119.4
1.824,-231.4
1.825,-199.4
1.826,-106.4
1.827,9.616
1.828,79.63
1.829,44.62
1.830,80.62
1.831,111.6
1.832,68.62
1.833,0.6316
1.834,-95.38
1.835,-121.4
1.836,-45.38
1.837,15.62
1.838,63.62
1.839,48.62
1.840,-88.37
1.841,-182.4
1.842,-64.37
1.843,-77.38
1.844,-215.4
1.845,-236.4
1.846,-42.38
1.847,76.63
1.848,162.6
1.849,90.63
1.850,96.63
1.851,186.6
1.852,274.6
1.853,284.6
1.854,145.6
1.855,57.63
1.856,8.621
1.857,-148.4
1.858,-155.4
1.859,-155.4
1.860,-124.4
1.861,-69.38
1.862,-103.4
1.863,-67.37
1.864,-75.38
1.865,-245.4
1.866,-255.4
1.867,-187.4
1.868,50.62
1.869,210.6
1.870,290.6
1.871,239.6
1.872,217.6
1.873,78.63
1.874,-51.38
1.875,-40.39
1.876,-36.36
1.877,-95.38
1.878,-11.38
1.879,56.62
1.880,108.6
1.881,115.6
1.882,28.63
1.883,-31.37
1.884,-98.38
1.885,-112.4
1.886,1.626
1.887,61.63
1.888,-49.37
1.889,7.626
1.890,81.61
1.891,124.6
1.892,154.6
1.893,106.6
1.894,38.62
1.895,62.62
1.896,51.62
1.897,8.621
1.898,-67.37
1.899,-165.4
1.900,-175.4
1.901,-169.4
1.902,-95.38
1.903,-0.3632
1.904,50.62
1.905,76.63
1.906,68.62
1.907,5.621
1.908,-7.374
1.909,-35.37
1.910,-147.4
1.911,-319.4
1.912,-435.4
1.913,-324.4
1.914,-99.38
1.915,144.6
1.916,239.6
1.917,277.6
1.918,246.6
1.919,205.6
1.920,85.63
1.921,30.62
1.922,-84.38
1.923,-60.38
1.924,36.63
1.925,33.62
1.926,55.63
1.927,115.6
1.928,136.6
1.929,39.63
1.930,-6.379
1.931,-33.38
1.932,-66.38
1.933,5.621
1.934,3.632
1.935,-29.38
1.936,-57.38
1.937,-35.37
1.938,-63.38
1.939,-167.4
1.940,-72.36
1.941,50.62
1.942,101.6
1.943,116.6
1.944,45.62
1.945,-29.38
1.946,-28.37
1.947,45.62
1.948,35.64
1.949,41.62
1.950,-35.37
1.951,-15.38
1.952,18.63
1.953,-46.37
1.954,-79.37
1.955,-90.39
1.956,-42.38
1.957,47.62
1.958,78.63
1.959,80.62
1.960,47.62
1.961,-19.39
1.962,-55.39
1.963,-170.4
1.964,-134.4
1.965,-57.38
1.966,-204.4
1.967,-297.4
1.968,-23.38
1.969,213.6
1.970,348.6
1.971,317.6
1.972,241.6
1.973,244.6
1.974,204.6
1.975,88.61
1.976,-3.379
1.977,-75.38
1.978,-85.37
1.979,-87.38
1.980,-89.37
1.981,-69.38
1.982,-75.38
1.983,-87.38
1.984,-55.39
1.985,-86.37
1.986,-135.4
1.987,-223.4
1.988,-165.4
1.989,-148.4
1.990,-231.4
1.991,-174.4
1.992,101.6
1.993,231.6
1.994,224.6
1.995,213.6
1.996,113.6
1.997,144.6
1.998,106.6
1.999,-6.379
2.000,-148.4
2.001,-175.4
2.002,7.626
2.003,164.6
2.004,182.6
2.005,143.6
2.006,90.63
2.007,34.61
2.008,3.632
2.009,-92.38
2.010,-269.4
2.011,-235.4
2.012,-76.39
2.013,81.61
2.014,173.6
2.015,136.6
2.016,34.61
2.017,-48.38
2.018,-18.36
2.019,32.62
2.020,7.626
2.021,-50.37
2.022,-11.38
2.023,-1.389
2.024,-10.37
2.025,-54.36
2.026,3.632
2.027,18.63
2.028,3.632
2.029,-24.38
2.030,-60.38
2.031,-131.4
2.032,-53.37
2.033,-14.37
2.034,7.626
2.035,39.63
2.036,41.62
2.037,36.63
2.038,49.61
2.039,72.63
2.040,59.62
2.041,47.62
2.042,-21.38
2.043,-259.4
2.044,-425.4
2.045,-269.4
2.046,-53.37
2.047,178.6
2.048,224.6
2.049,252.6
2.050,276.6
2.051,210.6
2.052,107.6
2.053,30.62
2.054,29.62
2.055,64.63
2.056,17.64
2.057,-95.38
2.058,-160.4
2.059,-166.4
2.060,-163.4
2.061,-65.38
2.062,-16.37
2.063,14.62
2.064,34.61
2.065,85.63
2.066,140.6
2.067,12.62
2.068,-103.4
2.069,-90.39
2.070,-43.37
2.071,-0.3632
2.072,-58.39
2.073,-114.4
2.074,-113.4
2.075,-10.37
2.076,79.63
2.077,148.6
2.078,87.61
2.079,122.6
2.080,113.6
2.081,72.63
2.082,35.64
2.083,24.63
2.084,41.62
2.085,55.63
2.086,-103.4
2.087,-170.4
2.088,-64.37
2.089,-103.4
2.090,-140.4
2.091,-232.4
2.092,-234.4
2.093,-152.4
2.094,-24.38
2.095,172.6
2.096,207.6
2.097,214.6
2.098,290.6
2.099,236.6
2.100,136.6
2.101,49.61
2.102,-28.37
2.103,-37.39
2.104,-27.38
2.105,-15.38
2.106,12.62
2.107,26.62
2.108,-27.38
2.109,-87.38
2.110,-143.4
2.111,-195.4
2.112,-129.4
2.113,-60.38
2.114,-64.37
2.115,-83.38
2.116,-30.38
2.117,-8.384
2.118,-19.39
2.119,-31.37
2.120,60.63
2.121,44.62
2.122,69.62
2.123,86.62
2.124,93.63
2.125,127.6
2.126,126.6
2.127,105.6
2.128,90.63
2.129,83.62
2.130,32.62
2.131,-5.384
2.132,-23.38
2.133,-37.39
2.134,-41.38
2.135,-43.37
2.136,-139.4
2.137,-187.4
2.138,-207.4
2.139,-113.4
2.140,5.621
2.141,78.63
2.142,95.62
2.143,-16.37
2.144,-62.38
2.145,-15.38
2.146,16.61
2.147,-11.38
2.148,-61.37
2.149,-15.38
2.150,84.61
2.151,112.6
2.152,50.62
2.153,-42.38
2.154,-103.4
2.155,-125.4
2.156,-35.37
2.157,65.62
2.158,133.6
2.159,162.6
2.160,121.6
2.161,75.63
2.162,70.61
2.163,-5.384
2.164,-185.4
2.165,-203.4
2.166,-102.4
2.167,-18.36
2.168,65.62
2.169,76.63
2.170,40.63
2.171,23.62
2.172,28.63
2.173,-43.37
2.174,-51.38
2.175,-18.36
2.176,2.621
2.177,67.61
2.178,108.6
2.179,81.61
2.180,20.62
2.181,-13.37
2.182,-45.38
2.183,-44.38
2.184,-23.38
2.185,-143.4
2.186,-124.4
2.187,-37.39
2.188,-17.37
2.189,35.64
2.190,52.61
2.191,68.62
2.192,114.6
2.193,87.61
2.194,63.62
2.195,78.63
2.196,46.63
2.197,-8.384
2.198,-66.38
2.199,-77.38
2.200,-87.38
2.201,-55.39
2.202,-17.37
2.203,-49.37
2.204,-57.38
2.205,-78.38
2.206,-63.38
2.207,-48.38
2.208,-68.37
2.209,-113.4
2.210,7.626
2.211,117.6
2.212,126.6
2.213,128.6
2.214,76.63
2.215,68.62
2.216,106.6
2.217,48.62
2.218,-8.384
2.219,-13.37
2.220,-1.389
2.221,-17.37
2.222,-21.38
2.223,-29.38
2.224,-12.38
2.225,-13.37
2.226,-2.384
2.227,-2.384
2.228,-14.37
2.229,-22.39
2.230,-24.38
2.231,-20.38
2.232,-19.39
2.233,-15.38
2.234,-13.37
2.235,-11.38
2.236,-9.379
2.237,-6.379
2.238,-8.384
2.239,-15.38
2.240,-15.38
2.241,-10.37
2.242,-8.384
2.243,-5.384
2.244,-2.384
2.245,3.632
2.246,5.621
2.247,12.62
2.248,3.632
2.249,-3.379
2.250,-4.389
2.251,-5.384
2.252,-4.389
2.253,-11.38
2.254,-15.38
2.255,-16.37
2.256,-18.36
2.257,-15.38
2.258,-7.374
2.259,0.6316
2.260,4.626
2.261,-0.3632
2.262,4.626
2.263,5.621
2.264,16.61
2.265,26.62
2.266,26.62
2.267,16.61
2.268,-2.384
2.269,-10.37
2.270,-13.37
2.271,-9.379
2.272,-8.384
2.273,-5.384
2.274,-0.3632
2.275,1.626
2.276,4.626
2.277,19.63
2.278,22.63
2.279,24.63
2.280,15.62
2.281,2.621
2.282,5.621
2.283,13.61
2.284,12.62
2.285,15.62
2.286,17.64
2.287,26.62
2.288,24.63
2.289,12.62
2.290,11.62
2.291,6.632
2.292,-1.389
2.293,-5.384
2.294,-10.37
2.295,-16.37
2.296,-16.37
2.297,-15.38
2.298,-15.38
2.299,-13.37
2.300,-16.37
2.301,-11.38
2.302,-12.38
2.303,-13.37
2.304,-14.37
2.305,-19.39
2.306,-22.39
2.307,-22.39
2.308,-14.37
2.309,-11.38
2.310,-2.384
2.311,-3.379
2.312,-5.384
2.313,-12.38
2.314,-2.384
2.315,12.62
2.316,26.62
2.317,28.63
2.318,23.62
2.319,18.63
2.320,12.62
2.321,21.63
2.322,29.62
2.323,40.63
2.324,31.61
2.325,13.61
2.326,-2.384
2.327,-11.38
2.328,-13.37
2.329,-16.37
2.330,-16.37
2.331,-19.39
2.332,-22.39
2.333,-20.38
2.334,-11.38
2.335,-8.384
2.336,2.621
2.337,8.621
2.338,15.62
2.339,20.62
2.340,20.62
2.341,16.61
2.342,8.621
2.343,0.6316
2.344,-5.384
2.345,-15.38
2.346,-19.39
2.347,-26.38
2.348,-25.37
2.349,-26.38
2.350,-24.38
2.351,-20.38
2.352,-0.3632
2.353,15.62
2.354,18.63
2.355,13.61
2.356,7.626
2.357,5.621
2.358,8.621
2.359,18.63
2.360,16.61
2.361,13.61
2.362,1.626
2.363,-0.3632
2.364,-2.384
2.365,3.632
2.366,-1.389
2.367,-2.384
2.368,-0.3632
2.369,-3.379
2.370,-5.384
2.371,-5.384
2.372,-8.384
2.373,-9.379
2.374,-14.37
2.375,-20.38
2.376,-23.38
2.377,-26.38
2.378,-25.37
2.379,-25.37
2.380,-25.37
2.381,-21.38
2.382,-10.37
2.383,2.621
2.384,5.621
2.385,18.63
2.386,26.62
2.387,34.61
2.388,23.62
2.389,21.63
2.390,11.62
2.391,0.6316
2.392,-16.37
2.393,-24.38
2.394,-27.38
2.395,-28.37
2.396,-30.38
2.397,-29.38
2.398,-27.38
2.399,-18.36
2.400,-0.3632
2.401,7.626
2.402,11.62
2.403,19.63
2.404,21.63
2.405,25.63
2.406,27.62
2.407,24.63
2.408,32.62
2.409,34.61
2.410,22.63
2.411,11.62
2.412,-1.389
2.413,-14.37
2.414,-25.37
2.415,-31.37
2.416,-24.38
2.417,-17.37
2.418,-10.37
2.419,2.621
2.420,26.62
2.421,39.63
2.422,30.62
2.423,14.62
2.424,-0.3632
2.425,-9.379
2.426,-5.384
2.427,-6.379
2.428,-8.384
2.429,-14.37
2.430,-12.38
2.431,-1.389
2.432,1.626
2.433,8.621
2.434,9.616
2.435,12.62
2.436,16.61
2.437,22.63
2.438,22.63
2.439,19.63
2.440,7.626
2.441,3.632
2.442,-7.374
2.443,-7.374
2.444,-7.374
2.445,-7.374
2.446,-8.384
2.447,-8.384
2.448,-18.36
2.449,-27.38
2.450,-31.37
2.451,-33.38
2.452,-31.37
2.453,-29.38
2.454,-18.36
2.455,-2.384
2.456,11.62
2.457,21.63
2.458,17.64
2.459,20.62
2.460,38.62
2.461,47.62
2.462,32.62
2.463,18.63
2.464,6.632
2.465,-0.3632
2.466,-4.389
2.467,-6.379
2.468,-5.384
2.469,-7.374
2.470,-8.384
2.471,-6.379
2.472,-1.389
2.473,-2.384
2.474,-9.379
2.475,-14.37
2.476,-19.39
2.477,-25.37
2.478,-20.38
2.479,-19.39
2.480,-13.37
2.481,-13.37
2.482,-13.37
2.483,-9.379
2.484,-5.384
2.485,2.621
2.486,8.621
2.487,18.63
2.488,15.62
2.489,7.626
2.490,-1.389
2.491,2.621
2.492,13.61
2.493,23.62
2.494,17.64
2.495,7.626
2.496,0.6316
2.497,2.621
2.498,0.6316
2.499,-2.384
2.500,-9.379
2.501,-17.37
2.502,-22.39
2.503,-31.37
2.504,-27.38
2.505,-16.37
2.506,-6.379
2.507,1.626
2.508,6.632
2.509,17.64
2.510,34.61
2.511,49.61
2.512,42.63
2.513,20.62
2.514,-0.3632
2.515,-11.38
2.516,-25.37
2.517,-25.37
2.518,-28.37
2.519,-20.38
2.520,-14.37
2.521,-1.389
2.522,0.6316
2.523,-0.3632
2.524,-0.3632
2.525,5.621
2.526,3.632
2.527,-0.3632
2.528,-5.384
2.529,-7.374
2.530,2.621
2.531,6.632
2.532,0.6316
2.533,2.621
2.534,20.62
2.535,39.63
2.536,44.62
2.537,32.62
2.538,19.63
2.539,6.632
2.540,-0.3632
2.541,-0.3632
2.542,-15.38
2.543,-29.38
2.544,-34.37
2.545,-32.37
2.546,-34.37
2.547,-34.37
2.548,-16.37
2.549,4.626
2.550,18.63
2.551,19.63
2.552,26.62
2.553,37.63
2.554,42.63
2.555,31.61
2.556,16.61
2.557,1.626
2.558,-10.37
2.559,-14.37
2.560,-19.39
2.561,-20.38
2.562,-14.37
2.563,-9.379
2.564,-11.38
2.565,-7.374
2.566,1.626
2.567,6.632
2.568,12.62
2.569,7.626
2.570,0.6316
2.571,-0.3632
2.572,-4.389
2.573,-7.374
2.574,-3.379
2.575,-7.374
2.576,-7.374
2.577,-8.384
2.578,-14.37
2.579,-12.38
2.580,-12.38
2.581,-9.379
2.582,-9.379
2.583,-7.374
2.584,-0.3632
2.585,12.62
2.586,15.62
2.587,14.62
2.588,12.62
2.589,8.621
2.590,0.6316
2.591,-1.389
2.592,-5.384
2.593,-9.379
2.594,-12.38
2.595,-16.37
2.596,-21.38
2.597,-17.37
2.598,-14.37
2.599,-8.384
2.600,-8.384
2.601,1.626
2.602,16.61
2.603,16.61
2.604,11.62
2.605,10.63
2.606,7.626
2.607,11.62
2.608,20.62
2.609,14.62
2.610,-1.389
2.611,-10.37
2.612,-15.38
2.613,-17.37
2.614,-11.38
2.615,-3.379
2.616,0.6316
2.617,-1.389
2.618,-12.38
2.619,-7.374
2.620,11.62
2.621,23.62
2.622,15.62
2.623,1.626
2.624,0.6316
2.625,2.621
2.626,16.61
2.627,13.61
2.628,10.63
2.629,14.62
2.630,12.62
2.631,11.62
2.632,6.632
2.633,-2.384
2.634,-7.374
2.635,-10.37
2.636,-8.384
2.637,-4.389
2.638,-9.379
2.639,-9.379
2.640,-10.37
2.641,-3.379
2.642,0.6316
2.643,3.632
2.644,6.632
2.645,3.632
2.646,8.621
2.647,3.632
2.648,3.632
2.649,-0.3632
2.650,-5.384
2.651,-10.37
2.652,-11.38
2.653,-15.38
2.654,-14.37
2.655,-13.37
2.656,-7.374
2.657,-7.374
2.658,-8.384
2.659,-7.374
2.660,-3.379
2.661,3.632
2.662,10.63
2.663,13.61
2.664,26.62
2.665,14.62
2.666,-0.3632
2.667,-3.379
2.668,-4.389
2.669,-5.384
2.670,-1.389
2.671,2.621
2.672,7.626
2.673,8.621
2.674,-0.3632
2.675,-9.379
2.676,-9.379
2.677,-6.379
2.678,-1.389
2.679,4.626
2.680,13.61
2.681,24.63
2.682,21.63
2.683,8.621
2.684,1.626
2.685,-0.3632
2.686,-5.384
2.687,-6.379
2.688,-8.384
2.689,-11.38
2.690,-12.38
2.691,-16.37
2.692,-16.37
2.693,-9.379
2.694,-13.37
2.695,-14.37
2.696,-10.37
2.697,-8.384
2.698,-4.389
2.699,-5.384
2.700,0.6316
2.701,8.621
2.702,2.621
2.703,-5.384
2.704,-22.39
2.705,-19.39
2.706,-7.374
2.707,3.632
2.708,6.632
2.709,6.632
2.710,0.6316
2.711,12.62
2.712,21.63
2.713,33.62
2.714,43.63
2.715,39.63
2.716,31.61
2.717,18.63
2.718,13.61
2.719,2.621
2.720,-0.3632
2.721,-4.389
2.722,-11.38
2.723,-17.37
2.724,-21.38
2.725,-19.39
2.726,-17.37
2.727,-12.38
2.728,-9.379
2.729,0.6316
2.730,8.621
2.731,2.621
2.732,-2.384
2.733,-15.38
2.734,-11.38
2.735,3.632
2.736,8.621
2.737,7.626
2.738,-2.384
2.739,-4.389
2.740,-7.374
2.741,0.6316
2.742,11.62
2.743,19.63
2.744,20.62
2.745,13.61
2.746,2.621
2.747,-3.379
2.748,-4.389
2.749,-3.379
2.750,-0.3632
2.751,-1.389
2.752,1.626
2.753,0.6316
2.754,-4.389
2.755,0.6316
2.756,-0.3632
2.757,-1.389
2.758,-5.384
2.759,-4.389
2.760,-5.384
2.761,-5.384
2.762,-5.384
2.763,-4.389
2.764,-6.379
2.765,-0.3632
2.766,-1.389
2.767,-6.379
2.768,-9.379
2.769,-11.38
2.770,-12.38
2.771,-9.379
2.772,-11.38
2.773,-7.374
2.774,-2.384
2.775,-0.3632
2.776,0.6316
2.777,1.626
2.778,-8.384
2.779,-12.38
2.780,-13.37
2.781,-5.384
2.782,8.621
2.783,8.621
2.784,8.621
2.785,6.632
2.786,5.621
2.787,3.632
2.788,-1.389
2.789,-4.389
2.790,0.6316
2.791,-0.3632
2.792,-3.379
2.793,2.621
2.794,12.62
2.795,14.62
2.796,8.621
2.797,8.621
2.798,14.62
2.799,10.63
2.800,4.626
2.801,8.621
2.802,20.62
2.803,12.62
2.804,5.621
2.805,-4.389
2.806,-8.384
2.807,-12.38
2.808,-11.38
2.809,-12.38
2.810,-18.36
2.811,-15.38
2.812,-13.37
2.813,-4.389
2.814,4.626
2.815,5.621
2.816,8.621
2.817,6.632
2.818,8.621
2.819,12.62
2.820,18.63
2.821,19.63
2.822,8.621
2.823,3.632
2.824,4.626
2.825,4.626
2.826,8.621
2.827,10.63
2.828,5.621
2.829,2.621
2.830,2.621
2.831,-1.389
2.832,-0.3632
2.833,-4.389
2.834,-8.384
2.835,-14.37
2.836,-15.38
2.837,-15.38
2.838,-19.39
2.839,-23.38
2.840,-21.38
2.841,-19.39
2.842,-19.39
2.843,-16.37
2.844,-10.37
2.845,-4.389
2.846,-3.379
2.847,-1.389
2.848,-4.389
2.849,1.626
2.850,16.61
2.851,27.62
2.852,23.62
2.853,16.61
2.854,14.62
2.855,5.621
2.856,4.626
2.857,6.632
2.858,7.626
2.859,-2.384
2.860,-3.379
2.861,3.632
2.862,3.632
2.863,0.6316
2.864,-5.384
2.865,-9.379
2.866,-13.37
2.867,-13.37
2.868,-6.379
2.869,-0.3632
2.870,3.632
2.871,8.621
2.872,6.632
2.873,10.63
2.874,10.63
2.875,5.621
2.876,-1.389
2.877,-3.379
2.878,-7.374
2.879,-15.38
2.880,-13.37
2.881,-10.37
2.882,-14.37
2.883,-16.37
2.884,-16.37
2.885,-16.37
2.886,-8.384
2.887,2.621
2.888,11.62
2.889,8.621
2.890,7.626
2.891,7.626
2.892,11.62
2.893,12.62
2.894,8.621
2.895,16.61
2.896,14.62
2.897,8.621
2.898,13.61
2.899,15.62
2.900,13.61
2.901,6.632
2.902,0.6316
2.903,-9.379
2.904,-15.38
2.905,-15.38
2.906,-10.37
2.907,-11.38
2.908,-14.37
2.909,-9.379
2.910,-7.374
2.911,-9.379
2.912,-10.37
2.913,-5.384
2.914,2.621
2.915,3.632
2.916,10.63
2.917,8.621
2.918,3.632
2.919,3.632
2.920,0.6316
2.921,0.6316
2.922,0.6316
2.923,7.626
2.924,23.62
2.925,17.64
2.926,2.621
2.927,-8.384
2.928,-6.379
2.929,-7.374
2.930,-5.384
2.931,0.6316
2.932,-1.389
2.933,5.621
2.934,2.621
2.935,4.626
2.936,-1.389
2.937,-9.379
2.938,-14.37
2.939,-14.37
2.940,-17.37
2.941,-16.37
2.942,-13.37
2.943,-12.38
2.944,-12.38
2.945,-6.379
2.946,-0.3632
2.947,-1.389
2.948,0.6316
2.949,-2.384
2.950,-4.389
2.951,2.621
2.952,13.61
2.953,28.63
2.954,27.62
2.955,23.62
2.956,11.62
2.957,6.632
2.958,6.632
2.959,-0.3632
2.960,-1.389
2.961,-5.384
2.962,-13.37
2.963,-20.38
2.964,-14.37
2.965,-5.384
2.966,2.621
2.967,11.62
2.968,8.621
2.969,2.621
2.970,2.621
2.971,-5.384
2.972,-3.379
2.973,4.626
2.974,15.62
2.975,16.61
2.976,15.62
2.977,7.626
2.978,0.6316
2.979,-6.379
2.980,-1.389
2.981,-4.389
2.982,-7.374
2.983,-10.37
2.984,0.6316
2.985,8.621
2.986,8.621
2.987,6.632
2.988,-0.3632
2.989,-6.379
2.990,-7.374
2.991,-16.37
2.992,-19.39
2.993,-22.39
2.994,-20.38
2.995,-22.39
2.996,-28.37
2.997,-29.38
2.998,-15.38
2.999,6.632
3.000,18.63
3.001,19.63
3.002,31.61
3.003,29.62
3.004,32.62
3.005,26.62
3.006,14.62
3.007,7.626
3.008,3.632
3.009,0.6316
3.010,-13.37
3.011,-14.37
3.012,-10.37
3.013,-7.374
3.014,-3.379
3.015,-5.384
3.016,-4.389
3.017,-8.384
3.018,-5.384
3.019,-2.384
3.020,2.621
3.021,2.621
3.022,5.621
3.023,14.62
3.024,12.62
3.025,2.621
3.026,-8.384
3.027,2.621
3.028,0.6316
3.029,-9.379
3.030,-13.37
3.031,-9.379
3.032,1.626
3.033,-0.3632
3.034,0.6316
3.035,-0.3632
3.036,-0.3632
3.037,2.621
3.038,7.626
3.039,5.621
3.040,0.6316
3.041,-7.374
3.042,-7.374
3.043,-2.384
3.044,-0.3632
3.045,0.6316
3.046,-1.389
3.047,-3.379
3.048,-6.379
3.049,-8.384
3.050,-11.38
3.051,-9.379
3.052,1.626
3.053,-0.3632
3.054,1.626
3.055,0.6316
3.056,7.626
3.057,11.62
3.058,-0.3632
3.059,-1.389
3.060,2.621
3.061,5.621
3.062,3.632
3.063,0.6316
3.064,0.6316
3.065,-0.3632
3.066,3.632
3.067,2.621
3.068,-2.384
3.069,-3.379
3.070,0.6316
3.071,0.6316
3.072,0.6316
3.073,3.632
3.074,-5.384
3.075,-7.374
3.076,-1.389
3.077,0.6316
3.078,0.6316
3.079,-2.384
3.080,-12.38
3.081,-0.3632
3.082,6.632
3.083,8.621
3.084,9.616
3.085,7.626
3.086,5.621
3.087,-2.384
3.088,-4.389
3.089,1.626
3.090,10.63
3.091,17.64
3.092,12.62
3.093,3.632
3.094,-9.379
3.095,-21.38
3.096,-39.38
3.097,-29.38
3.098,-16.37
3.099,-14.37
3.100,-8.384
3.101,-1.389
3.102,16.61
3.103,22.63
3.104,27.62
3.105,27.62
3.106,23.62
3.107,19.63
3.108,12.62
3.109,0.6316
3.110,-7.374
3.111,-13.37
3.112,-11.38
3.113,-9.379
3.114,-8.384
3.115,-4.389
3.116,-2.384
3.117,-5.384
3.118,-3.379
3.119,-3.379
3.120,-4.389
3.121,-5.384
3.122,-9.379
3.123,-13.37
3.124,-18.36
3.125,-24.38
3.126,-24.38
3.127,-22.39
3.128,-18.36
3.129,-10.37
3.130,4.626
3.131,33.62
3.132,45.62
3.133,36.63
3.134,27.62
3.135,18.63
3.136,6.632
3.137,-7.374
3.138,-23.38
3.139,-23.38
3.140,-18.36
3.141,-12.38
3.142,-0.3632
3.143,8.621
3.144,19.63
3.145,26.62
3.146,28.63
3.147,26.62
3.148,27.62
3.149,12.62
3.150,6.632
3.151,0.6316
3.152,-9.379
3.153,-16.37
3.154,-14.37
3.155,-9.379
3.156,0.6316
3.157,-0.3632
3.158,-2.384
3.159,-6.379
3.160,-6.379
3.161,-5.384
3.162,-5.384
3.163,-8.384
3.164,-13.37
3.165,-18.36
3.166,-22.39
3.167,-27.38
3.168,-23.38
3.169,-13.37
3.170,-2.384
3.171,0.6316
3.172,-0.3632
3.173,0.6316
3.174,10.63
3.175,18.63
3.176,17.64
3.177,13.61
3.178,21.63
3.179,24.63
3.180,16.61
3.181,3.632
3.182,-9.379
3.183,-18.36
3.184,-21.38
3.185,-18.36
3.186,-10.37
3.187,-3.379
3.188,2.621
3.189,21.63
3.190,20.62
3.191,18.63
3.192,11.62
3.193,5.621
3.194,-0.3632
3.195,-10.37
3.196,-15.38
3.197,-13.37
3.198,-7.374
3.199,-7.374
3.200,-4.389
3.201,-1.389
3.202,1.626
3.203,8.621
3.204,12.62
3.205,9.616
3.206,3.632
3.207,7.626
3.208,12.62
3.209,13.61
3.210,15.62
3.211,0.6316
3.212,0.6316
3.213,-3.379
3.214,0.6316
3.215,0.6316
3.216,-8.384
3.217,-9.379
3.218,-9.379
3.219,-11.38
3.220,-12.38
3.221,-12.38
3.222,-19.39
3.223,-20.38
3.224,-14.37
3.225,-13.37
3.226,-8.384
3.227,1.626
3.228,4.626
3.229,12.62
3.230,12.62
3.231,16.61
3.232,20.62
3.233,20.62
3.234,16.61
3.235,5.621
3.236,8.621
3.237,8.621
3.238,0.6316
3.239,-7.374
3.240,-8.384
3.241,-12.38
3.242,-13.37
3.243,-16.37
3.244,-22.39
3.245,-27.38
3.246,-21.38
3.247,-15.38
3.248,-6.379
3.249,-6.379
3.250,-1.389
3.251,1.626
3.252,15.62
3.253,26.62
3.254,32.62
3.255,30.62
3.256,24.63
3.257,14.62
3.258,9.616
3.259,8.621
3.260,7.626
3.261,-1.389
3.262,-4.389
3.263,-9.379
3.264,-13.37
3.265,-18.36
3.266,-27.38
3.267,-26.38
3.268,-21.38
3.269,-13.37
3.270,-14.37
3.271,-15.38
3.272,-8.384
3.273,-1.389
3.274,2.621
3.275,6.632
3.276,15.62
3.277,12.62
3.278,13.61
3.279,7.626
3.280,4.626
3.281,4.626
3.282,6.632
3.283,11.62
3.284,10.63
3.285,7.626
3.286,3.632
3.287,7.626
3.288,8.621
3.289,8.621
3.290,15.62
3.291,16.61
3.292,17.64
3.293,13.61
3.294,10.63
3.295,0.6316
3.296,-7.374
3.297,-13.37
3.298,-26.38
3.299,-31.37
3.300,-28.37
3.301,-28.37
3.302,-29.38
3.303,-27.38
3.304,-26.38
3.305,-10.37
3.306,16.61
3.307,21.63
3.308,12.62
3.309,7.626
3.310,6.632
3.311,4.626
3.312,10.63
3.313,11.62
3.314,5.621
3.315,6.632
3.316,5.621
3.317,-0.3632
3.318,-5.384
3.319,2.621
3.320,5.621
3.321,6.632
3.322,11.62
3.323,6.632
3.324,0.6316
3.325,0.6316
3.326,-8.384
3.327,-10.37
3.328,-21.38
3.329,-31.37
3.330,-26.38
3.331,-19.39
3.332,-12.38
3.333,-6.379
3.334,1.626
3.335,3.632
3.336,11.62
3.337,12.62
3.338,7.626
3.339,7.626
3.340,1.626
3.341,-2.384
3.342,-0.3632
3.343,-1.389
3.344,-2.384
3.345,3.632
3.346,10.63
3.347,13.61
3.348,7.626
3.349,12.62
3.350,12.62
3.351,11.62
3.352,0.6316
3.353,-1.389
3.354,-3.379
3.355,6.632
3.356,6.632
3.357,-2.384
3.358,-0.3632
3.359,2.621
3.360,-1.389
3.361,-0.3632
3.362,-5.384
3.363,-7.374
3.364,-13.37
3.365,-19.39
3.366,-22.39
3.367,-23.38
3.368,-19.39
3.369,-16.37
3.370,-9.379
3.371,-3.379
3.372,-1.389
3.373,6.632
3.374,22.63
3.375,40.63
3.376,54.63
3.377,44.62
3.378,33.62
3.379,21.63
3.380,12.62
3.381,-2.384
3.382,-18.36
3.383,-29.38
3.384,-36.36
3.385,-40.39
3.386,-44.38
3.387,-31.37
3.388,-12.38
3.389,9.616
3.390,28.63
3.391,34.61
3.392,22.63
3.393,10.63
3.394,0.6316
3.395,-9.379
3.396,-11.38
3.397,-11.38
3.398,-12.38
3.399,-6.379
3.400,4.626
3.401,12.62
3.402,13.61
3.403,6.632
3.404,0.6316
3.405,7.626
3.406,5.621
3.407,4.626
3.408,2.621
3.409,-0.3632
3.410,-1.389
3.411,-0.3632
3.412,3.632
3.413,2.621
3.414,-0.3632
3.415,-4.389
3.416,-15.38
3.417,-16.37
3.418,-21.38
3.419,-19.39
3.420,-22.39
3.421,-17.37
3.422,-14.37
3.423,-0.3632
3.424,7.626
3.425,-0.3632
3.426,-12.38
3.427,-13.37
3.428,-10.37
3.429,-5.384
3.430,0.6316
3.431,-4.389
3.432,7.626
3.433,18.63
3.434,19.63
3.435,14.62
3.436,6.632
3.437,3.632
3.438,-0.3632
3.439,6.632
3.440,-1.389
3.441,0.6316
3.442,8.621
3.443,21.63
3.444,22.63
3.445,15.62
3.446,11.62
3.447,4.626
3.448,1.626
3.449,-7.374
3.450,-7.374
3.451,-10.37
3.452,-9.379
3.453,-7.374
3.454,-2.384
3.455,-4.389
3.456,-0.3632
3.457,0.6316
3.458,-3.379
3.459,-10.37
3.460,-9.379
3.461,-21.38
3.462,-25.37
3.463,-23.38
3.464,-25.37
3.465,-27.38
3.466,-16.37
3.467,-0.3632
3.468,2.621
3.469,6.632
3.470,8.621
3.471,13.61
3.472,22.63
3.473,26.62
3.474,31.61
3.475,42.63
3.476,40.63
3.477,29.62
3.478,19.63
3.479,8.621
3.480,0.6316
3.481,-5.384
3.482,-9.379
3.483,-19.39
3.484,-19.39
3.485,-19.39
3.486,-7.374
3.487,-6.379
3.488,-6.379
3.489,-9.379
3.490,-11.38
3.491,-15.38
3.492,-14.37
3.493,-14.37
3.494,-22.39
3.495,-26.38
3.496,-26.38
3.497,-21.38
3.498,-7.374
3.499,8.621
3.500,14.62
3.501,21.63
3.502,24.63
3.503,23.62
3.504,24.63
3.505,35.64
3.506,32.62
3.507,27.62
3.508,10.63
3.509,-13.37
3.510,-20.38
3.511,-25.37
3.512,-28.37
3.513,-29.38
3.514,-33.38
3.515,-34.37
3.516,-34.37
3.517,-25.37
3.518,-12.38
3.519,4.626
3.520,19.63
3.521,24.63
3.522,34.61
3.523,40.63
3.524,34.61
3.525,26.62
3.526,23.62
3.527,10.63
3.528,3.632
3.529,-2.384
3.530,-3.379
3.531,-4.389
3.532,-10.37
3.533,-15.38
3.534,-17.37
3.535,-17.37
3.536,-10.37
3.537,-8.384
3.538,-10.37
3.539,-9.379
3.540,-9.379
3.541,-6.379
3.542,2.621
3.543,10.63
3.544,18.63
3.545,21.63
3.546,20.62
3.547,16.61
3.548,7.626
3.549,-7.374
3.550,-17.37
3.551,-26.38
3.552,-30.38
3.553,-31.37
3.554,-23.38
3.555,-14.37
3.556,-11.38
3.557,-3.379
3.558,0.6316
3.559,8.621
3.560,18.63
3.561,19.63
3.562,19.63
3.563,16.61
3.564,8.621
3.565,11.62
3.566,11.62
3.567,5.621
3.568,3.632
3.569,0.6316
3.570,-2.384
3.571,-4.389
3.572,-0.3632
3.573,8.621
3.574,12.62
3.575,8.621
3.576,4.626
3.577,-1.389
3.578,-5.384
3.579,-13.37
3.580,-19.39
3.581,-17.37
3.582,-15.38
3.583,-7.374
3.584,0.6316
3.585,5.621
3.586,10.63
3.587,3.632
3.588,-1.389
3.589,-6.379
3.590,-8.384
3.591,-5.384
3.592,-7.374
3.593,-7.374
3.594,-2.384
3.595,5.621
3.596,4.626
3.597,2.621
3.598,-5.384
3.599,-0.3632
3.600,3.632
3.601,15.62
3.602,21.63
3.603,11.62
3.604,-1.389
3.605,-7.374
3.606,-10.37
3.607,-16.37
3.608,-21.38
3.609,-27.38
3.610,-28.37
3.611,-20.38
3.612,-2.384
3.613,23.62
3.614,40.63
3.615,44.62
3.616,39.63
3.617,24.63
3.618,15.62
3.619,4.626
3.620,-9.379
3.621,-16.37
3.622,-19.39
3.623,-19.39
3.624,-17.37
3.625,-10.37
3.626,-6.379
3.627,1.626
3.628,1.626
3.629,5.621
3.630,-7.374
3.631,-6.379
3.632,-4.389
3.633,-15.38
3.634,-20.38
3.635,-20.38
3.636,-19.39
3.637,-8.384
3.638,5.621
3.639,21.63
3.640,28.63
3.641,23.62
3.642,22.63
3.643,20.62
3.644,15.62
3.645,5.621
3.646,3.632
3.647,-4.389
3.648,-5.384
3.649,-8.384
3.650,-1.389
3.651,-3.379
3.652,-8.384
3.653,-7.374
3.654,-8.384
3.655,-8.384
3.656,-15.38
3.657,-27.38
3.658,-34.37
3.659,-41.38
3.660,-39.38
3.661,-33.38
3.662,-23.38
3.663,-13.37
3.664,4.626
3.665,40.63
3.666,57.63
3.667,58.63
3.668,34.61
3.669,8.621
3.670,0.6316
3.671,-5.384
3.672,-1.389
3.673,3.632
3.674,2.621
3.675,8.621
3.676,7.626
3.677,7.626
3.678,12.62
3.679,17.64
3.680,13.61
3.681,8.621
3.682,8.621
3.683,0.6316
3.684,-4.389
3.685,-7.374
3.686,-5.384
3.687,-6.379
3.688,-5.384
3.689,-9.379
3.690,-13.37
3.691,-16.37
3.692,-15.38
3.693,-20.38
3.694,-10.37
3.695,-2.384
3.696,5.621
3.697,7.626
3.698,-4.389
3.699,-8.384
3.700,-9.379
3.701,-7.374
3.702,-7.374
3.703,-6.379
3.704,-2.384
3.705,-1.389
3.706,4.626
3.707,16.61
3.708,21.63
3.709,19.63
3.710,10.63
3.711,4.626
3.712,0.6316
3.713,-3.379
3.714,-5.384
3.715,-2.384
3.716,-3.379
3.717,-5.384
3.718,-5.384
3.719,-9.379
3.720,-12.38
3.721,-17.37
3.722,-17.37
3.723,-13.37
3.724,-7.374
3.725,-1.389
3.726,4.626
3.727,11.62
3.728,23.62
3.729,28.63
3.730,24.63
3.731,11.62
3.732,3.632
3.733,-1.389
3.734,-9.379
3.735,-10.37
3.736,-20.38
3.737,-17.37
3.738,-15.38
3.739,-9.379
3.740,-0.3632
3.741,7.626
3.742,6.632
3.743,8.621
3.744,11.62
3.745,16.61
3.746,14.62
3.747,16.61
3.748,20.62
3.749,8.621
3.750,3.632
3.751,-3.379
3.752,-7.374
3.753,-7.374
3.754,-7.374
3.755,-7.374
3.756,-13.37
3.757,-20.38
3.758,-23.38
3.759,-23.38
3.760,-17.37
3.761,-10.37
3.762,-3.379
3.763,1.626
3.764,2.621
3.765,8.621
3.766,13.61
3.767,15.62
3.768,6.632
3.769,0.6316
3.770,-6.379
3.771,-3.379
3.772,-1.389
3.773,-4.389
3.774,-4.389
3.775,-7.374
3.776,-8.384
3.777,-3.379
3.778,-5.384
3.779,-13.37
3.780,-13.37
3.781,-7.374
3.782,0.6316
3.783,-2.384
3.784,-7.374
3.785,-11.38
3.786,-8.384
3.787,-1.389
3.788,4.626
3.789,13.61
3.790,16.61
3.791,16.61
3.792,7.626
3.793,8.621
3.794,7.626
3.795,6.632
3.796,5.621
3.797,8.621
3.798,18.63
3.799,28.63
3.800,35.64
3.801,34.61
3.802,29.62
3.803,20.62
3.804,6.632
3.805,-2.384
3.806,-9.379
3.807,-12.38
3.808,-15.38
3.809,-25.37
3.810,-23.38
3.811,-24.38
3.812,-23.38
3.813,-23.38
3.814,-22.39
3.815,-17.37
3.816,-10.37
3.817,-15.38
3.818,-18.36
3.819,-16.37
3.820,-16.37
3.821,-13.37
3.822,-5.384
3.823,2.621
3.824,14.62
3.825,19.63
3.826,23.62
3.827,24.63
3.828,24.63
3.829,24.63
3.830,20.62
3.831,16.61
3.832,10.63
3.833,10.63
3.834,2.621
3.835,1.626
3.836,-5.384
3.837,-9.379
3.838,-10.37
3.839,-8.384
3.840,-8.384
3.841,-7.374
3.842,-5.384
3.843,-6.379
3.844,-3.379
3.845,-9.379
3.846,-10.37
3.847,-16.37
3.848,-20.38
3.849,-23.38
3.850,-23.38
3.851,-24.38
3.852,-21.38
3.853,-11.38
3.854,4.626
3.855,10.63
3.856,23.62
3.857,34.61
3.858,39.63
3.859,31.61
3.860,22.63
3.861,18.63
3.862,15.62
3.863,11.62
3.864,5.621
3.865,1.626
3.866,-3.379
3.867,-8.384
3.868,-7.374
3.869,-2.384
3.870,-1.389
3.871,-2.384
3.872,-1.389
3.873,-7.374
3.874,-5.384
3.875,-9.379
3.876,-6.379
3.877,-2.384
3.878,-7.374
3.879,-5.384
3.880,-2.384
3.881,1.626
3.882,-2.384
3.883,-3.379
3.884,-3.379
3.885,-2.384
3.886,-4.389
3.887,-1.389
3.888,-1.389
3.889,-0.3632
3.890,-2.384
3.891,-1.389
3.892,1.626
3.893,-0.3632
3.894,-0.3632
3.895,-3.379
3.896,1.626
3.897,0.6316
3.898,3.632
3.899,0.6316
3.900,0.6316
3.901,-0.3632
3.902,-0.3632
3.903,-1.389
3.904,-0.3632
3.905,-2.384
3.906,-1.389
3.907,-1.389
3.908,-1.389
3.909,0.6316
3.910,1.626
3.911,-1.389
3.912,0.6316
3.913,-1.389
3.914,-0.3632
3.915,1.626
3.916,0.6316
3.917,-2.384
3.918,-5.384
3.919,-3.379
3.920,-5.384
3.921,-0.3632
3.922,-2.384
3.923,-0.3632
3.924,-5.384
3.925,-10.37
3.926,-3.379
3.927,-8.384
3.928,-15.38
3.929,-13.37
3.930,-12.38
3.931,-12.38
3.932,-8.384
3.933,-1.389
3.934,10.63
3.935,11.62
3.936,-0.3632
3.937,-33.38
3.938,-54.36
3.939,-37.39
3.940,-5.384
3.941,24.63
3.942,34.61
3.943,34.61
3.944,26.62
3.945,22.63
3.946,24.63
3.947,28.63
3.948,24.63
3.949,31.61
3.950,27.62
3.951,25.63
3.952,24.63
3.953,18.63
3.954,11.62
3.955,3.632
3.956,-8.384
3.957,-23.38
3.958,-66.38
3.959,-91.39
3.960,-100.4
3.961,-125.4
3.962,-138.4
3.963,-104.4
3.964,-97.37
3.965,-60.38
3.966,-16.37
3.967,-7.374
3.968,-25.37
3.969,-18.36
3.970,12.62
3.971,36.63
3.972,45.62
3.973,21.63
3.974,6.632
3.975,-9.379
3.976,44.62
3.977,86.62
3.978,102.6
3.979,95.62
3.980,67.61
3.981,56.62
3.982,58.63
3.983,75.63
3.984,115.6
3.985,108.6
3.986,108.6
3.987,112.6
3.988,87.61
3.989,37.63
3.990,-31.37
3.991,-44.38
3.992,-35.37
3.993,-36.36
3.994,-26.38
3.995,-28.37
3.996,-16.37
3.997,-4.389
3.998,-43.37
3.999,-52.37
4.000,-90.39
4.001,-105.4
4.002,-88.37
4.003,-25.37
4.004,26.62
4.005,65.62
4.006,71.64
4.007,61.63
4.008,37.63
4.009,23.62
4.010,-32.37
4.011,-114.4
4.012,-222.4
4.013,-229.4
4.014,-188.4
4.015,-89.37
4.016,39.63
4.017,143.6
4.018,224.6
4.019,224.6
4.020,208.6
4.021,175.6
4.022,144.6
4.023,106.6
4.024,-17.37
4.025,-84.38
4.026,-68.37
4.027,-45.38
4.028,-42.38
4.029,-4.389
4.030,3.632
4.031,15.62
4.032,17.64
4.033,19.63
4.034,18.63
4.035,-7.374
4.036,-59.38
4.037,-99.38
4.038,-153.4
4.039,-117.4
4.040,-19.39
4.041,36.63
4.042,56.62
4.043,53.64
4.044,34.61
4.045,-5.384
4.046,-63.38
4.047,-131.4
4.048,-163.4
4.049,-153.4
4.050,-144.4
4.051,-109.4
4.052,-34.37
4.053,52.61
4.054,97.63
4.055,85.63
4.056,63.62
4.057,48.62
4.058,64.63
4.059,87.61
4.060,94.63
4.061,64.63
4.062,-36.36
4.063,-170.4
4.064,-191.4
4.065,-162.4
4.066,-92.38
4.067,-19.39
4.068,30.62
4.069,66.62
4.070,104.6
4.071,185.6
4.072,222.6
4.073,192.6
4.074,160.6
4.075,98.62
4.076,-43.37
4.077,-117.4
4.078,-74.38
4.079,-33.38
4.080,-20.38
4.081,-10.37
4.082,43.63
4.083,76.63
4.084,102.6
4.085,121.6
4.086,118.6
4.087,148.6
4.088,121.6
4.089,62.62
4.090,-31.37
4.091,-73.39
4.092,-83.38
4.093,-41.38
4.094,-72.36
4.095,-113.4
4.096,-151.4
4.097,-180.4
4.098,-193.4
4.099,-172.4
4.100,-164.4
4.101,-157.4
4.102,-169.4
4.103,-98.38
4.104,-41.38
4.105,-1.389
4.106,71.64
4.107,143.6
4.108,159.6
4.109,127.6
4.110,108.6
4.111,106.6
4.112,101.6
4.113,85.63
4.114,8.621
4.115,-106.4
4.116,-171.4
4.117,-191.4
4.118,-276.4
4.119,-219.4
4.120,-130.4
4.121,-77.38
4.122,-87.38
4.123,23.62
4.124,102.6
4.125,205.6
4.126,254.6
4.127,300.6
4.128,305.6
4.129,331.6
4.130,290.6
4.131,209.6
4.132,163.6
4.133,130.6
4.134,123.6
4.135,102.6
4.136,78.63
4.137,43.63
4.138,-5.384
4.139,-17.37
4.140,-73.39
4.141,-115.4
4.142,-110.4
4.143,-112.4
4.144,-84.38
4.145,-99.38
4.146,-101.4
4.147,-144.4
4.148,-212.4
4.149,-284.4
4.150,-359.4
4.151,-302.4
4.152,-196.4
4.153,-40.39
4.154,81.61
4.155,174.6
4.156,177.6
4.157,116.6
4.158,79.63
4.159,92.62
4.160,81.61
4.161,87.61
4.162,65.62
4.163,10.63
4.164,-79.37
4.165,-175.4
4.166,-162.4
4.167,-106.4
4.168,3.632
4.169,91.63
4.170,80.62
4.171,53.64
4.172,20.62
4.173,-15.38
4.174,-75.38
4.175,-185.4
4.176,-208.4
4.177,-262.4
4.178,-332.4
4.179,-309.4
4.180,-180.4
4.181,22.63
4.182,205.6
4.183,368.6
4.184,445.6
4.185,454.6
4.186,407.6
4.187,328.6
4.188,228.6
4.189,11.62
4.190,-138.4
4.191,-175.4
4.192,-175.4
4.193,-92.38
4.194,23.62
4.195,148.6
4.196,189.6
4.197,192.6
4.198,140.6
4.199,62.62
4.200,-31.37
4.201,-114.4
4.202,-143.4
4.203,-201.4
4.204,-240.4
4.205,-194.4
4.206,-90.39
4.207,-24.38
4.208,64.63
4.209,90.63
4.210,109.6
4.211,83.62
4.212,55.63
4.213,56.62
4.214,-10.37
4.215,-75.38
4.216,-78.38
4.217,-44.38
4.218,4.626
4.219,19.63
4.220,24.63
4.221,-14.37
4.222,-22.39
4.223,-35.37
4.224,-24.38
4.225,-1.389
4.226,23.62
4.227,51.62
4.228,62.62
4.229,41.62
4.230,3.632
4.231,-13.37
4.232,-27.38
4.233,-100.4
4.234,-240.4
4.235,-346.4
4.236,-390.4
4.237,-388.4
4.238,-345.4
4.239,-267.4
4.240,-163.4
4.241,-83.38
4.242,122.6
4.243,259.6
4.244,381.6
4.245,415.6
4.246,435.6
4.247,415.6
4.248,336.6
4.249,262.6
4.250,215.6
4.251,188.6
4.252,131.6
4.253,70.61
4.254,4.626
4.255,-33.38
4.256,-56.38
4.257,-72.36
4.258,-90.39
4.259,-101.4
4.260,-111.4
4.261,-119.4
4.262,-121.4
4.263,-206.4
4.264,-415.4
4.265,-492.4
4.266,-517.4
4.267,-451.4
4.268,-216.4
4.269,-47.38
4.270,180.6
4.271,348.6
4.272,449.6
4.273,422.6
4.274,371.6
4.275,309.6
4.276,235.6
4.277,165.6
4.278,125.6
4.279,18.63
4.280,-143.4
4.281,-301.4
4.282,-295.4
4.283,-163.4
4.284,10.63
4.285,99.61
4.286,130.6
4.287,126.6
4.288,106.6
4.289,64.63
4.290,-7.374
4.291,-40.39
4.292,-105.4
4.293,-184.4
4.294,-215.4
4.295,-213.4
4.296,-124.4
4.297,-50.37
4.298,-3.379
4.299,56.62
4.300,-81.38
4.301,-55.39
4.302,8.621
4.303,84.61
4.304,42.63
4.305,-102.4
4.306,-114.4
4.307,-20.38
4.308,127.6
4.309,247.6
4.310,322.6
4.311,365.6
4.312,314.6
4.313,211.6
4.314,132.6
4.315,100.6
4.316,-17.37
4.317,-126.4
4.318,-121.4
4.319,-117.4
4.320,-49.37
4.321,-53.37
4.322,-19.39
4.323,-26.38
4.324,-17.37
4.325,-12.38
4.326,-25.37
4.327,-41.38
4.328,-68.37
4.329,-74.38
4.330,-129.4
4.331,-179.4
4.332,-352.4
4.333,-385.4
4.334,-291.4
4.335,-128.4
4.336,-19.39
4.337,11.62
4.338,72.63
4.339,185.6
4.340,224.6
4.341,140.6
4.342,142.6
4.343,231.6
4.344,236.6
4.345,196.6
4.346,123.6
4.347,-13.37
4.348,-101.4
4.349,-142.4
4.350,-90.39
4.351,-43.37
4.352,2.621
4.353,13.61
4.354,37.63
4.355,23.62
4.356,10.63
4.357,40.63
4.358,-3.379
4.359,-5.384
4.360,-23.38
4.361,-3.379
4.362,54.63
4.363,101.6
4.364,87.61
4.365,78.63
4.366,48.62
4.367,-77.38
4.368,-89.37
4.369,-47.38
4.370,-7.374
4.371,-3.379
4.372,-51.38
4.373,-77.38
4.374,-51.38
4.375,-35.37
4.376,2.621
4.377,6.632
4.378,3.632
4.379,-16.37
4.380,-21.38
4.381,-14.37
4.382,-1.389
4.383,-2.384
4.384,-12.38
4.385,-51.38
4.386,-74.38
4.387,-135.4
4.388,-165.4
4.389,-180.4
4.390,-134.4
4.391,-67.37
4.392,-21.38
4.393,-108.4
4.394,-48.38
4.395,22.63
4.396,43.63
4.397,51.62
4.398,78.63
4.399,106.6
4.400,98.62
4.401,50.62
4.402,132.6
4.403,176.6
4.404,178.6
4.405,175.6
4.406,117.6
4.407,-6.379
4.408,-110.4
4.409,-103.4
4.410,-39.38
4.411,-63.38
4.412,-278.4
4.413,-499.4
4.414,-436.4
4.415,-96.38
4.416,104.6
4.417,249.6
4.418,132.6
4.419,126.6
4.420,5.621
4.421,-71.37
4.422,159.6
4.423,381.6
4.424,459.6
4.425,432.6
4.426,386.6
4.427,304.6
4.428,211.6
4.429,127.6
4.430,24.63
4.431,-61.37
4.432,-168.4
4.433,-228.4
4.434,-288.4
4.435,-272.4
4.436,-180.4
4.437,-96.38
4.438,-75.38
4.439,-95.38
4.440,-87.38
4.441,-105.4
4.442,-224.4
4.443,-217.4
4.444,-126.4
4.445,-23.38
4.446,49.61
4.447,70.61
4.448,103.6
4.449,141.6
4.450,182.6
4.451,184.6
4.452,162.6
4.453,109.6
4.454,34.61
4.455,-39.38
4.456,-127.4
4.457,-151.4
4.458,-122.4
4.459,-63.38
4.460,-50.37
4.461,-20.38
4.462,-23.38
4.463,-28.37
4.464,-73.39
4.465,-91.39
4.466,-75.38
4.467,-56.38
4.468,-134.4
4.469,-65.38
4.470,18.63
4.471,89.64
4.472,62.62
4.473,32.62
4.474,-10.37
4.475,35.64
4.476,65.62
4.477,72.63
4.478,61.63
4.479,22.63
4.480,29.62
4.481,65.62
4.482,86.62
4.483,75.63
4.484,66.62
4.485,58.63
4.486,42.63
4.487,30.62
4.488,-7.374
4.489,-72.36
4.490,-168.4
4.491,-165.4
4.492,-72.36
4.493,-19.39
4.494,-24.38
4.495,4.626
4.496,41.62
4.497,56.62
4.498,109.6
4.499,140.6
4.500,78.63
4.501,27.62
4.502,-45.38
4.503,-106.4
4.504,-181.4
4.505,-100.4
4.506,-52.37
4.507,-13.37
4.508,28.63
4.509,68.62
4.510,60.63
4.511,87.61
4.512,86.62
4.513,21.63
4.514,38.62
4.515,-18.36
4.516,-79.37
4.517,-186.4
4.518,-155.4
4.519,-121.4
4.520,-30.38
4.521,38.62
4.522,106.6
4.523,124.6
4.524,160.6
4.525,126.6
4.526,115.6
4.527,121.6
4.528,123.6
4.529,51.62
4.530,-49.37
4.531,-45.38
4.532,-31.37
4.533,-119.4
4.534,-128.4
4.535,-115.4
4.536,-82.37
4.537,-64.37
4.538,-56.38
4.539,-26.38
4.540,6.632
4.541,27.62
4.542,-71.37
4.543,-55.39
4.544,-56.38
4.545,-41.38
4.546,24.63
4.547,71.64
4.548,121.6
4.549,127.6
4.550,93.63
4.551,66.62
4.552,84.61
4.553,84.61
4.554,34.61
4.555,-37.39
4.556,-54.36
4.557,-12.38
4.558,-13.37
4.559,-92.38
4.560,-151.4
4.561,-181.4
4.562,-167.4
4.563,-101.4
4.564,-77.38
4.565,-159.4
4.566,-250.4
4.567,-143.4
4.568,-81.38
4.569,44.62
4.570,179.6
4.571,234.6
4.572,109.6
4.573,122.6
4.574,203.6
4.575,264.6
4.576,316.6
4.577,283.6
4.578,188.6
4.579,83.62
4.580,8.621
4.581,-2.384
4.582,-28.37
4.583,-33.38
4.584,-69.38
4.585,-143.4
4.586,-188.4
4.587,-199.4
4.588,-194.4
4.589,-217.4
4.590,-162.4
4.591,-79.37
4.592,-42.38
4.593,-65.38
4.594,-179.4
4.595,-129.4
4.596,24.63
4.597,148.6
4.598,186.6
4.599,191.6
4.600,186.6
4.601,107.6
4.602,117.6
4.603,134.6
4.604,116.6
4.605,76.63
4.606,50.62
4.607,46.63
4.608,-3.379
4.609,-68.37
4.610,-159.4
4.611,-119.4
4.612,-159.4
4.613,-127.4
4.614,-116.4
4.615,-53.37
4.616,-48.38
4.617,-3.379
4.618,-15.38
4.619,-8.384
4.620,-19.39
4.621,74.62
4.622,61.63
4.623,44.62
4.624,2.621
4.625,-1.389
4.626,52.61
4.627,93.63
4.628,84.61
4.629,82.63
4.630,29.62
4.631,-68.37
4.632,-51.38
4.633,-2.384
4.634,31.61
4.635,31.61
4.636,14.62
4.637,15.62
4.638,17.64
4.639,46.63
4.640,61.63
4.641,7.626
4.642,-39.38
4.643,-94.39
4.644,-115.4
4.645,-198.4
4.646,-199.4
4.647,-122.4
4.648,-69.38
4.649,30.62
4.650,115.6
4.651,133.6
4.652,114.6
4.653,59.62
4.654,-11.38
4.655,-24.38
4.656,-14.37
4.657,86.62
4.658,120.6
4.659,103.6
4.660,70.61
4.661,50.62
4.662,24.63
4.663,6.632
4.664,40.63
4.665,47.62
4.666,-25.37
4.667,-124.4
4.668,-179.4
4.669,-142.4
4.670,-138.4
4.671,-155.4
4.672,-152.4
4.673,-139.4
4.674,-76.39
4.675,7.626
4.676,14.62
4.677,-49.37
4.678,52.61
4.679,154.6
4.680,205.6
4.681,136.6
4.682,95.62
4.683,131.6
4.684,141.6
4.685,99.61
4.686,94.63
4.687,84.61
4.688,-32.37
4.689,-100.4
4.690,-85.37
4.691,-111.4
4.692,-199.4
4.693,-157.4
4.694,-119.4
4.695,-167.4
4.696,-126.4
4.697,-59.38
4.698,0.6316
4.699,1.626
4.700,105.6
4.701,209.6
4.702,279.6
4.703,303.6
4.704,263.6
4.705,194.6
4.706,79.63
4.707,-31.37
4.708,-106.4
4.709,-138.4
4.710,-107.4
4.711,-84.38
4.712,-47.38
4.713,-46.37
4.714,-37.39
4.715,-81.38
4.716,-24.38
4.717,-3.379
4.718,27.62
4.719,-56.38
4.720,-87.38
4.721,-93.38
4.722,-214.4
4.723,-241.4
4.724,-90.39
4.725,50.62
4.726,85.63
4.727,107.6
4.728,122.6
4.729,116.6
4.730,101.6
4.731,120.6
4.732,133.6
4.733,139.6
4.734,118.6
4.735,72.63
4.736,51.62
4.737,22.63
4.738,-0.3632
4.739,-15.38
4.740,-19.39
4.741,-79.37
4.742,-128.4
4.743,-235.4
4.744,-299.4
4.745,-301.4
4.746,-215.4
4.747,-70.37
4.748,50.62
4.749,77.62
4.750,96.63
4.751,136.6
4.752,107.6
4.753,32.62
4.754,108.6
4.755,97.63
4.756,118.6
4.757,139.6
4.758,135.6
4.759,96.63
4.760,64.63
4.761,54.63
4.762,36.63
4.763,15.62
4.764,-6.379
4.765,-40.39
4.766,-55.39
4.767,-60.38
4.768,-61.37
4.769,-63.38
4.770,-98.38
4.771,-112.4
4.772,-130.4
4.773,-199.4
4.774,-244.4
4.775,-230.4
4.776,-133.4
4.777,-104.4
4.778,32.62
4.779,128.6
4.780,108.6
4.781,172.6
4.782,193.6
4.783,172.6
4.784,125.6
4.785,108.6
4.786,120.6
4.787,104.6
4.788,64.63
4.789,-55.39
4.790,-53.37
4.791,-52.37
4.792,-19.39
4.793,15.62
4.794,-3.379
4.795,-111.4
4.796,-184.4
4.797,-213.4
4.798,-106.4
4.799,-94.39
4.800,-97.37
4.801,-91.39
4.802,-99.38
4.803,-67.37
4.804,57.63
4.805,128.6
4.806,136.6
4.807,16.61
4.808,-25.37
4.809,72.63
4.810,197.6
4.811,189.6
4.812,168.6
4.813,109.6
4.814,-27.38
4.815,-39.38
4.816,100.6
4.817,124.6
4.818,92.62
4.819,-15.38
4.820,-77.38
4.821,-116.4
4.822,-41.38
4.823,-14.37
4.824,-70.37
4.825,-82.37
4.826,-192.4
4.827,-248.4
4.828,-116.4
4.829,-14.37
4.830,92.62
4.831,173.6
4.832,148.6
4.833,173.6
4.834,192.6
4.835,136.6
4.836,75.63
4.837,39.63
4.838,-14.37
4.839,-44.38
4.840,-23.38
4.841,-29.38
4.842,-15.38
4.843,-31.37
4.844,-18.36
4.845,-55.39
4.846,-91.39
4.847,-64.37
4.848,-27.38
4.849,-27.38
4.850,-19.39
4.851,-46.37
4.852,-15.38
4.853,0.6316
4.854,5.621
4.855,-2.384
4.856,-33.38
4.857,-13.37
4.858,0.6316
4.859,2.621
4.860,4.626
4.861,-15.38
4.862,-50.37
4.863,-45.38
4.864,-52.37
4.865,-45.38
4.866,-48.38
4.867,-27.38
4.868,16.61
4.869,21.63
4.870,79.63
4.871,90.63
4.872,102.6
4.873,11.62
4.874,-93.38
4.875,-119.4
4.876,-123.4
4.877,-33.38
4.878,31.61
4.879,-2.384
4.880,-34.37
4.881,-51.38
4.882,-44.38
4.883,44.62
4.884,96.63
4.885,111.6
4.886,96.63
4.887,100.6
4.888,111.6
4.889,68.62
4.890,-19.39
4.891,-6.379
4.892,22.63
4.893,45.62
4.894,-9.379
4.895,-226.4
4.896,-278.4
4.897,-142.4
4.898,-1.389
4.899,77.62
4.900,27.62
4.901,-143.4
4.902,-51.38
4.903,79.63
4.904,204.6
4.905,204.6
4.906,165.6
4.907,144.6
4.908,130.6
4.909,142.6
4.910,99.61
4.911,28.63
4.912,-9.379
4.913,-156.4
4.914,-289.4
4.915,-205.4
4.916,-112.4
4.917,-35.37
4.918,23.62
4.919,48.62
4.920,72.63
4.921,77.62
4.922,49.61
4.923,8.621
4.924,-144.4
4.925,-163.4
4.926,-223.4
4.927,-127.4
4.928,-49.37
4.929,13.61
4.930,72.63
4.931,-1.389
4.932,-36.36
4.933,-3.379
4.934,58.63
4.935,99.61
4.936,56.62
4.937,62.62
4.938,117.6
4.939,141.6
4.940,90.63
4.941,120.6
4.942,6.632
4.943,14.62
4.944,48.62
4.945,14.62
4.946,28.63
4.947,74.62
4.948,21.63
4.949,-67.37
4.950,-106.4
4.951,-106.4
4.952,-29.38
4.953,54.63
4.954,49.61
4.955,-13.37
4.956,-56.38
4.957,-75.38
4.958,-74.38
4.959,-111.4
4.960,-195.4
4.961,-164.4
4.962,-49.37
4.963,29.62
4.964,115.6
4.965,164.6
4.966,160.6
4.967,88.61
4.968,97.63
4.969,46.63
4.970,-103.4
4.971,-185.4
4.972,-111.4
4.973,-50.37
4.974,-1.389
4.975,23.62
4.976,14.62
4.977,6.632
4.978,31.61
4.979,76.63
4.980,93.63
4.981,58.63
4.982,-13.37
4.983,-120.4
4.984,-151.4
4.985,-109.4
4.986,-2.384
4.987,116.6
4.988,161.6
4.989,100.6
4.990,25.63
4.991,-15.38
4.992,-47.38
4.993,5.621
4.994,81.61
4.995,40.63
4.996,-53.37
4.997,-217.4
4.998,-219.4
4.999,-62.38
5.000,8.621
5.001,-23.38
5.002,30.62
5.003,28.63
5.004,52.61
5.005,32.62
5.006,-41.38
5.007,-9.379
5.008,24.63
5.009,64.63
5.010,-52.37
5.011,-169.4
5.012,-137.4
5.013,-324.4
5.014,-407.4
5.015,-149.4
5.016,-57.38
5.017,182.6
5.018,338.6
5.019,448.6
5.020,371.6
5.021,360.6
5.022,328.6
5.023,183.6
5.024,108.6
5.025,94.63
5.026,79.63
5.027,84.61
5.028,32.62
5.029,-24.38
5.030,-154.4
5.031,-282.4
5.032,-243.4
5.033,-232.4
5.034,-175.4
5.035,-87.38
5.036,57.63
5.037,119.6
5.038,96.63
5.039,104.6
5.040,74.62
5.041,42.63
5.042,-31.37
5.043,-64.37
5.044,-45.38
5.045,-13.37
5.046,0.6316
5.047,-9.379
5.048,-58.39
5.049,-105.4
5.050,-133.4
5.051,-170.4
5.052,-160.4
5.053,-64.37
5.054,8.621
5.055,-34.37
5.056,-132.4
5.057,-85.37
5.058,-69.38
5.059,-39.38
5.060,80.62
5.061,108.6
5.062,108.6
5.063,19.63
5.064,19.63
5.065,111.6
5.066,183.6
5.067,234.6
5.068,156.6
5.069,22.63
5.070,-79.37
5.071,-112.4
5.072,-104.4
5.073,-71.37
5.074,-1.389
5.075,76.63
5.076,94.63
5.077,114.6
5.078,124.6
5.079,77.62
5.080,37.63
5.081,-85.37
5.082,-197.4
5.083,-119.4
5.084,-64.37
5.085,-120.4
5.086,-155.4
5.087,-268.4
5.088,-175.4
5.089,-45.38
5.090,-14.37
5.091,3.632
5.092,121.6
5.093,243.6
5.094,278.6
5.095,271.6
5.096,228.6
5.097,173.6
5.098,125.6
5.099,13.61
5.100,-121.4
5.101,-248.4
5.102,-186.4
5.103,-32.37
5.104,8.621
5.105,-131.4
5.106,-217.4
5.107,-183.4
5.108,-55.39
5.109,117.6
5.110,128.6
5.111,-83.38
5.112,-247.4
5.113,-247.4
5.114,-149.4
5.115,10.63
5.116,16.61
5.117,-7.374
5.118,47.62
5.119,245.6
5.120,381.6
5.121,333.6
5.122,293.6
5.123,283.6
5.124,285.6
5.125,236.6
5.126,105.6
5.127,20.62
5.128,-42.38
5.129,-55.39
5.130,-92.38
5.131,-130.4
5.132,-213.4
5.133,-295.4
5.134,-292.4
5.135,-254.4
5.136,-160.4
5.137,-70.37
5.138,-65.38
5.139,-13.37
5.140,95.62
5.141,185.6
5.142,172.6
5.143,134.6
5.144,90.63
5.145,46.63
5.146,-18.36
5.147,-186.4
5.148,-305.4
5.149,-243.4
5.150,-134.4
5.151,-43.37
5.152,11.62
5.153,110.6
5.154,101.6
5.155,76.63
5.156,134.6
5.157,130.6
5.158,138.6
5.159,80.62
5.160,-64.37
5.161,-216.4
5.162,-248.4
5.163,-109.4
5.164,31.61
5.165,132.6
5.166,41.62
5.167,31.61
5.168,104.6
5.169,23.62
5.170,-11.38
5.171,14.62
5.172,59.62
5.173,106.6
5.174,94.63
5.175,102.6
5.176,64.63
5.177,75.63
5.178,-63.38
5.179,-183.4
5.180,-125.4
5.181,16.61
5.182,48.62
5.183,40.63
5.184,-11.38
5.185,-63.38
5.186,-63.38
5.187,-93.38
5.188,-137.4
5.189,-86.37
5.190,-42.38
5.191,-4.389
5.192,88.61
5.193,90.63
5.194,121.6
5.195,128.6
5.196,92.62
5.197,44.62
5.198,28.63
5.199,-14.37
5.200,-63.38
5.201,-78.38
5.202,-51.38
5.203,3.632
5.204,47.62
5.205,32.62
5.206,4.626
5.207,16.61
5.208,-6.379
5.209,-105.4
5.210,-131.4
5.211,-100.4
5.212,-119.4
5.213,-95.38
5.214,-62.38
5.215,-19.39
5.216,24.63
5.217,-133.4
5.218,-141.4
5.219,-43.37
5.220,84.61
5.221,203.6
5.222,205.6
5.223,115.6
5.224,115.6
5.225,37.63
5.226,44.62
5.227,72.63
5.228,64.63
5.229,-88.37
5.230,-92.38
5.231,-171.4
5.232,-147.4
5.233,-89.37
5.234,-4.389
5.235,18.63
5.236,-116.4
5.237,-29.38
5.238,190.6
5.239,215.6
5.240,138.6
5.241,61.63
5.242,112.6
5.243,150.6
5.244,132.6
5.245,43.63
5.246,-13.37
5.247,-23.38
5.248,-26.38
5.249,-25.37
5.250,-33.38
5.251,-97.37
5.252,-112.4
5.253,-80.38
5.254,-66.38
5.255,-57.38
5.256,-53.37
5.257,-6.379
5.258,65.62
5.259,44.62
5.260,-21.38
5.261,15.62
5.262,40.63
5.263,57.63
5.264,51.62
5.265,31.61
5.266,35.64
5.267,16.61
5.268,-39.38
5.269,-95.38
5.270,-197.4
5.271,-211.4
5.272,-75.38
5.273,34.61
5.274,65.62
5.275,31.61
5.276,-49.37
5.277,-7.374
5.278,-70.37
5.279,-92.38
5.280,-84.38
5.281,-12.38
5.282,117.6
5.283,144.6
5.284,129.6
5.285,134.6
5.286,215.6
5.287,175.6
5.288,63.62
5.289,-13.37
5.290,-53.37
5.291,-35.37
5.292,-79.37
5.293,-67.37
5.294,-23.38
5.295,29.62
5.296,-75.38
5.297,-152.4
5.298,-118.4
5.299,-4.389
5.300,56.62
5.301,78.63
5.302,-6.379
5.303,-5.384
5.304,49.61
5.305,76.63
5.306,0.6316
5.307,-33.38
5.308,-81.38
5.309,-111.4
5.310,-101.4
5.311,-94.39
5.312,21.63
5.313,110.6
5.314,80.62
5.315,74.62
5.316,50.62
5.317,-16.37
5.318,-34.37
5.319,-15.38
5.320,-0.3632
5.321,12.62
5.322,6.632
5.323,58.63
5.324,52.61
5.325,-220.4
5.326,-419.4
5.327,-377.4
5.328,-238.4
5.329,50.62
5.330,246.6
5.331,315.6
5.332,365.6
5.333,433.6
5.334,268.6
5.335,121.6
5.336,-52.37
5.337,-126.4
5.338,-85.37
5.339,-51.38
5.340,-46.37
5.341,-35.37
5.342,-14.37
5.343,-3.379
5.344,-67.37
5.345,-175.4
5.346,-224.4
5.347,-192.4
5.348,-72.36
5.349,31.61
5.350,-17.37
5.351,57.63
5.352,142.6
5.353,56.62
5.354,24.63
5.355,25.63
5.356,101.6
5.357,216.6
5.358,166.6
5.359,38.62
5.360,18.63
5.361,48.62
5.362,0.6316
5.363,-26.38
5.364,-13.37
5.365,5.621
5.366,-22.39
5.367,-95.38
5.368,-156.4
5.369,-172.4
5.370,-98.38
5.371,16.61
5.372,54.63
5.373,88.61
5.374,111.6
5.375,37.63
5.376,-69.38
5.377,-91.39
5.378,-37.39
5.379,15.62
5.380,0.6316
5.381,-36.36
5.382,-83.38
5.383,-37.39
5.384,18.63
5.385,32.62
5.386,34.61
5.387,8.621
5.388,-15.38
5.389,-64.37
5.390,-105.4
5.391,-167.4
5.392,-173.4
5.393,-8.384
5.394,158.6
5.395,207.6
5.396,202.6
5.397,186.6
5.398,128.6
5.399,68.62
5.400,21.63
5.401,-10.37
5.402,-16.37
5.403,-5.384
5.404,-14.37
5.405,-53.37
5.406,-169.4
5.407,-191.4
5.408,-143.4
5.409,-89.37
5.410,-24.38
5.411,-75.38
5.412,24.63
5.413,200.6
5.414,269.6
5.415,145.6
5.416,-113.4
5.417,-286.4
5.418,-96.38
5.419,98.62
5.420,177.6
5.421,175.6
5.422,78.63
5.423,32.62
5.424,27.62
5.425,-92.38
5.426,-151.4
5.427,-82.37
5.428,-4.389
5.429,35.64
5.430,48.62
5.431,41.62
5.432,16.61
5.433,-23.38
5.434,-30.38
5.435,-20.38
5.436,-91.39
5.437,-148.4
5.438,-223.4
5.439,-221.4
5.440,-106.4
5.441,28.63
5.442,180.6
5.443,257.6
5.444,291.6
5.445,233.6
5.446,126.6
5.447,67.61
5.448,0.6316
5.449,-69.38
5.450,-122.4
5.451,-152.4
5.452,-103.4
5.453,-29.38
5.454,-42.38
5.455,-53.37
5.456,-26.38
5.457,48.62
5.458,67.61
5.459,40.63
5.460,-0.3632
5.461,-12.38
5.462,-0.3632
5.463,32.62
5.464,17.64
5.465,-31.37
5.466,-179.4
5.467,-172.4
5.468,-134.4
5.469,-8.384
5.470,65.62
5.471,93.63
5.472,112.6
5.473,146.6
5.474,68.62
5.475,100.6
5.476,64.63
5.477,-55.39
5.478,-163.4
5.479,-108.4
5.480,-24.38
5.481,7.626
5.482,-7.374
5.483,-100.4
5.484,-103.4
5.485,-23.38
5.486,60.63
5.487,130.6
5.488,114.6
5.489,42.63
5.490,64.63
5.491,138.6
5.492,99.61
5.493,41.62
5.494,-2.384
5.495,-43.37
5.496,-41.38
5.497,-26.38
5.498,-19.39
5.499,-18.36
5.500,-53.37
5.501,-168.4
5.502,-209.4
5.503,-129.4
5.504,-17.37
5.505,52.61
5.506,56.62
5.507,64.63
5.508,158.6
5.509,224.6
5.510,136.6
5.511,21.63
5.512,-39.38
5.513,-30.38
5.514,-28.37
5.515,-90.39
5.516,-163.4
5.517,-152.4
5.518,-21.38
5.519,96.63
5.520,110.6
5.521,64.63
5.522,20.62
5.523,-26.38
5.524,-39.38
5.525,-26.38
5.526,-35.37
5.527,-21.38
5.528,0.6316
5.529,24.63
5.530,80.62
5.531,59.62
5.532,31.61
5.533,-5.384
5.534,-35.37
5.535,-35.37
5.536,-78.38
5.537,-110.4
5.538,-121.4
5.539,-39.38
5.540,0.6316
5.541,28.63
5.542,68.62
5.543,86.62
5.544,32.62
5.545,23.62
5.546,13.61
5.547,14.62
5.548,22.63
5.549,29.62
5.550,24.63
5.551,27.62
5.552,5.621
5.553,-3.379
5.554,-8.384
5.555,-17.37
5.556,-14.37
5.557,-14.37
5.558,-11.38
5.559,-13.37
5.560,-10.37
5.561,-7.374
5.562,-10.37
5.563,-9.379
5.564,-9.379
5.565,-9.379
5.566,-8.384
5.567,-3.379
5.568,-4.389
5.569,-5.384
5.570,-5.384
5.571,-2.384
5.572,-3.379
5.573,-0.3632
5.574,-1.389
5.575,-0.3632
5.576,0.6316
5.577,-2.384
5.578,-4.389
5.579,-0.3632
5.580,-5.384
5.581,-6.379
5.582,-7.374
5.583,-4.389
5.584,-5.384
5.585,-5.384
5.586,-10.37
5.587,-8.384
5.588,-11.38
5.589,-9.379
5.590,-5.384
5.591,3.632
5.592,8.621
5.593,15.62
5.594,15.62
5.595,16.61
5.596,20.62
5.597,26.62
5.598,33.62
5.599,25.63
5.600,17.64
5.601,8.621
5.602,3.632
5.603,-0.3632
5.604,-4.389
5.605,-5.384
5.606,-4.389
5.607,-7.374
5.608,-6.379
5.609,-11.38
5.610,-10.37
5.611,-11.38
5.612,-10.37
5.613,-15.38
5.614,-14.37
5.615,-16.37
5.616,-16.37
5.617,-15.38
5.618,-15.38
5.619,-13.37
5.620,-11.38
5.621,-5.384
5.622,-2.384
5.623,2.621
5.624,9.616
5.625,18.63
5.626,17.64
5.627,21.63
5.628,18.63
5.629,15.62
5.630,14.62
5.631,13.61
5.632,10.63
5.633,6.632
5.634,-1.389
5.635,-3.379
5.636,-0.3632
5.637,2.621
5.638,4.626
5.639,8.621
5.640,8.621
5.641,4.626
5.642,0.6316
5.643,-3.379
5.644,1.626
5.645,6.632
5.646,1.626
5.647,2.621
5.648,2.621
5.649,-7.374
5.650,-2.384
5.651,-0.3632
5.652,-0.3632
5.653,-10.37
5.654,-18.36
5.655,-20.38
5.656,-27.38
5.657,-33.38
5.658,-32.37
5.659,-27.38
5.660,-21.38
5.661,-15.38
5.662,-5.384
5.663,10.63
5.664,17.64
5.665,16.61
5.666,20.62
5.667,35.64
5.668,35.64
5.669,30.62
5.670,20.62
5.671,11.62
5.672,-0.3632
5.673,-0.3632
5.674,-0.3632
5.675,-7.374
5.676,-6.379
5.677,-6.379
5.678,-2.384
5.679,3.632
5.680,5.621
5.681,3.632
5.682,-2.384
5.683,-0.3632
5.684,-3.379
5.685,-3.379
5.686,-2.384
5.687,-4.389
5.688,-5.384
5.689,-10.37
5.690,-11.38
5.691,-8.384
5.692,-8.384
5.693,-10.37
5.694,-10.37
5.695,-8.384
5.696,-0.3632
5.697,6.632
5.698,5.621
5.699,5.621
5.700,2.621
5.701,2.621
5.702,0.6316
5.703,-3.379
5.704,-4.389
5.705,-7.374
5.706,-4.389
5.707,-2.384
5.708,-3.379
5.709,0.6316
5.710,1.626
5.711,3.632
5.712,-4.389
5.713,-9.379
5.714,-12.38
5.715,-21.38
5.716,-24.38
5.717,-30.38
5.718,-27.38
5.719,-24.38
5.720,-18.36
5.721,-11.38
5.722,-7.374
5.723,1.626
5.724,20.62
5.725,35.64
5.726,27.62
5.727,12.62
5.728,-1.389
5.729,-8.384
5.730,-12.38
5.731,-5.384
5.732,0.6316
5.733,-2.384
5.734,-10.37
5.735,-2.384
5.736,17.64
5.737,24.63
5.738,17.64
5.739,7.626
5.740,7.626
5.741,14.62
5.742,26.62
5.743,31.61
5.744,34.61
5.745,32.62
5.746,24.63
5.747,16.61
5.748,4.626
5.749,-8.384
5.750,-16.37
5.751,-24.38
5.752,-31.37
5.753,-35.37
5.754,-33.38
5.755,-28.37
5.756,-18.36
5.757,-12.38
5.758,-7.374
5.759,7.626
5.760,28.63
5.761,39.63
5.762,36.63
5.763,20.62
5.764,8.621
5.765,-0.3632
5.766,0.6316
5.767,0.6316
5.768,0.6316
5.769,6.632
5.770,8.621
5.771,14.62
5.772,11.62
5.773,4.626
5.774,3.632
5.775,-1.389
5.776,-4.389
5.777,-8.384
5.778,-10.37
5.779,-7.374
5.780,-9.379
5.781,-9.379
5.782,-7.374
5.783,-10.37
5.784,-9.379
5.785,-8.384
5.786,-3.379
5.787,-5.384
5.788,-9.379
5.789,-7.374
5.790,-8.384
5.791,-11.38
5.792,-10.37
5.793,-7.374
5.794,-7.374
5.795,-5.384
5.796,-4.389
5.797,-2.384
5.798,1.626
5.799,5.621
5.800,7.626
5.801,4.626
5.802,4.626
5.803,1.626
5.804,-2.384
5.805,-13.37
5.806,-22.39
5.807,-20.38
5.808,-20.38
5.809,-12.38
5.810,-10.37
5.811,-10.37
5.812,-1.389
5.813,14.62
5.814,45.62
5.815,44.62
5.816,25.63
5.817,-0.3632
5.818,-13.37
5.819,-10.37
5.820,-9.379
5.821,-2.384
5.822,4.626
5.823,15.62
5.824,30.62
5.825,34.61
5.826,22.63
5.827,11.62
5.828,-1.389
5.829,-14.37
5.830,-14.37
5.831,-12.38
5.832,-15.38
5.833,-13.37
5.834,-14.37
5.835,-11.38
5.836,-10.37
5.837,-11.38
5.838,-13.37
5.839,-14.37
5.840,-17.37
5.841,-10.37
5.842,-3.379
5.843,14.62
5.844,26.62
5.845,16.61
5.846,9.616
5.847,5.621
5.848,-3.379
5.849,3.632
5.850,15.62
5.851,22.63
5.852,11.62
5.853,2.621
5.854,-1.389
5.855,1.626
5.856,0.6316
5.857,5.621
5.858,5.621
5.859,2.621
5.860,-3.379
5.861,-7.374
5.862,-4.389
5.863,-2.384
5.864,-5.384
5.865,-3.379
5.866,-1.389
5.867,3.632
5.868,15.62
5.869,17.64
5.870,8.621
5.871,-7.374
5.872,-15.38
5.873,-20.38
5.874,-24.38
5.875,-31.37
5.876,-30.38
5.877,-19.39
5.878,-4.389
5.879,3.632
5.880,3.632
5.881,6.632
5.882,10.63
5.883,24.63
5.884,23.62
5.885,17.64
5.886,13.61
5.887,10.63
5.888,6.632
5.889,1.626
5.890,5.621
5.891,2.621
5.892,-1.389
5.893,-8.384
5.894,-9.379
5.895,-15.38
5.896,-13.37
5.897,-11.38
5.898,-8.384
5.899,-0.3632
5.900,5.621
5.901,10.63
5.902,16.61
5.903,16.61
5.904,11.62
5.905,2.621
5.906,-8.384
5.907,-18.36
5.908,-22.39
5.909,-24.38
5.910,-23.38
5.911,-19.39
5.912,-14.37
5.913,-8.384
5.914,-0.3632
5.915,13.61
5.916,16.61
5.917,24.63
5.918,17.64
5.919,0.6316
5.920,-14.37
5.921,-22.39
5.922,-26.38
5.923,-28.37
5.924,-25.37
5.925,-12.38
5.926,0.6316
5.927,22.63
5.928,46.63
5.929,47.62
5.930,39.63
5.931,28.63
5.932,23.62
5.933,16.61
5.934,11.62
5.935,10.63
5.936,8.621
5.937,-0.3632
5.938,-6.379
5.939,-14.37
5.940,-20.38
5.941,-25.37
5.942,-25.37
5.943,-28.37
5.944,-20.38
5.945,-18.36
5.946,-8.384
5.947,7.626
5.948,23.62
5.949,27.62
5.950,27.62
5.951,18.63
5.952,7.626
5.953,-1.389
5.954,-9.379
5.955,-12.38
5.956,-14.37
5.957,-19.39
5.958,-14.37
5.959,-19.39
5.960,-20.38
5.961,-11.38
5.962,-1.389
5.963,8.621
5.964,10.63
5.965,-0.3632
5.966,-14.37
5.967,-19.39
5.968,-18.36
5.969,-8.384
5.970,8.621
5.971,17.64
5.972,24.63
5.973,24.63
5.974,14.62
5.975,13.61
5.976,18.63
5.977,20.62
5.978,10.63
5.979,8.621
5.980,7.626
5.981,8.621
5.982,3.632
5.983,7.626
5.984,4.626
5.985,0.6316
5.986,-11.38
5.987,-18.36
5.988,-21.38
5.989,-19.39
5.990,-19.39
5.991,-13.37
5.992,-12.38
5.993,-10.37
5.994,-7.374
5.995,-1.389
5.996,-3.379
5.997,-5.384
5.998,-3.379
5.999,0.6316
6.000,24.63
6.001,36.63
6.002,32.62
6.003,21.63
6.004,0.6316
6.005,-8.384
6.006,-14.37
6.007,-15.38
6.008,-16.37
6.009,-13.37
6.010,-11.38
6.011,1.626
6.012,1.626
6.013,-5.384
6.014,-12.38
6.015,-21.38
6.016,-21.38
6.017,-23.38
6.018,-26.38
6.019,-26.38
6.020,-23.38
6.021,-7.374
6.022,18.63
6.023,28.63
6.024,34.61
6.025,34.61
6.026,36.63
6.027,36.63
6.028,30.62
6.029,24.63
6.030,15.62
6.031,8.621
6.032,5.621
6.033,8.621
6.034,4.626
6.035,-0.3632
6.036,-11.38
6.037,-15.38
6.038,-17.37
6.039,-17.37
6.040,-11.38
6.041,-5.384
6.042,-5.384
6.043,-6.379
6.044,-14.37
6.045,-13.37
6.046,-17.37
6.047,-17.37
6.048,-12.38
6.049,-7.374
6.050,-2.384
6.051,6.632
6.052,20.62
6.053,23.62
6.054,19.63
6.055,11.62
6.056,0.6316
6.057,-7.374
6.058,-9.379
6.059,-7.374
6.060,-5.384
6.061,-13.37
6.062,-14.37
6.063,-9.379
6.064,0.6316
6.065,11.62
6.066,13.61
6.067,14.62
6.068,11.62
6.069,2.621
6.070,-1.389
6.071,-2.384
6.072,-10.37
6.073,-16.37
6.074,-22.39
6.075,-30.38
6.076,-32.37
6.077,-22.39
6.078,-17.37
6.079,-3.379
6.080,-3.379
6.081,14.62
6.082,31.61
6.083,35.64
6.084,30.62
6.085,24.63
6.086,23.62
6.087,16.61
6.088,9.616
6.089,10.63
6.090,11.62
6.091,5.621
6.092,0.6316
6.093,-7.374
6.094,-13.37
6.095,-17.37
6.096,-16.37
6.097,-11.38
6.098,2.621
6.099,0.6316
6.100,-3.379
6.101,-5.384
6.102,-7.374
6.103,-13.37
6.104,-20.38
6.105,-18.36
6.106,-17.37
6.107,-17.37
6.108,-18.36
6.109,-16.37
6.110,-13.37
6.111,-2.384
6.112,8.621
6.113,26.62
6.114,32.62
6.115,37.63
6.116,26.62
6.117,20.62
6.118,18.63
6.119,11.62
6.120,6.632
6.121,6.632
6.122,7.626
6.123,5.621
6.124,-3.379
6.125,-12.38
6.126,-19.39
6.127,-19.39
6.128,-23.38
6.129,-21.38
6.130,-10.37
6.131,-4.389
6.132,-8.384
6.133,-12.38
6.134,-17.37
6.135,-7.374
6.136,12.62
6.137,11.62
6.138,0.6316
6.139,-5.384
6.140,-6.379
6.141,-2.384
6.142,2.621
6.143,6.632
6.144,11.62
6.145,19.63
6.146,19.63
6.147,18.63
6.148,8.621
6.149,0.6316
6.150,-1.389
6.151,-5.384
6.152,-1.389
6.153,5.621
6.154,13.61
6.155,7.626
6.156,6.632
6.157,4.626
6.158,4.626
6.159,0.6316
6.160,-5.384
6.161,-9.379
6.162,-13.37
6.163,-17.37
6.164,-22.39
6.165,-26.38
6.166,-20.38
6.167,-16.37
6.168,-13.37
6.169,-5.384
6.170,-1.389
6.171,19.63
6.172,31.61
6.173,34.61
6.174,24.63
6.175,16.61
6.176,4.626
6.177,-1.389
6.178,-8.384
6.179,-18.36
6.180,-16.37
6.181,-10.37
6.182,-6.379
6.183,-8.384
6.184,-2.384
6.185,0.6316
6.186,-0.3632
6.187,-0.3632
6.188,-11.38
6.189,-18.36
6.190,-14.37
6.191,-17.37
6.192,-14.37
6.193,-20.38
6.194,-17.37
6.195,-17.37
6.196,-6.379
6.197,16.61
6.198,28.63
6.199,24.63
6.200,20.62
6.201,13.61
6.202,3.632
6.203,8.621
6.204,19.63
6.205,16.61
6.206,8.621
6.207,6.632
6.208,4.626
6.209,0.6316
6.210,6.632
6.211,15.62
6.212,21.63
6.213,17.64
6.214,8.621
6.215,1.626
6.216,-3.379
6.217,-10.37
6.218,-17.37
6.219,-17.37
6.220,-13.37
6.221,-15.38
6.222,-12.38
6.223,-14.37
6.224,-7.374
6.225,3.632
6.226,8.621
6.227,4.626
6.228,0.6316
6.229,-0.3632
6.230,-0.3632
6.231,0.6316
6.232,-1.389
6.233,-4.389
6.234,-0.3632
6.235,5.621
6.236,8.621
6.237,3.632
6.238,-0.3632
6.239,-1.389
6.240,-3.379
6.241,-3.379
6.242,-1.389
6.243,2.621
6.244,2.621
6.245,3.632
6.246,1.626
6.247,-4.389
6.248,-7.374
6.249,-14.37
6.250,-16.37
6.251,-19.39
6.252,-16.37
6.253,-13.37
6.254,-11.38
6.255,-5.384
6.256,1.626
6.257,6.632
6.258,3.632
6.259,0.6316
6.260,-0.3632
6.261,-5.384
6.262,-3.379
6.263,8.621
6.264,8.621
6.265,8.621
6.266,12.62
6.267,11.62
6.268,5.621
6.269,4.626
6.270,6.632
6.271,14.62
6.272,13.61
6.273,8.621
6.274,3.632
6.275,-3.379
6.276,-10.37
6.277,-4.389
6.278,-1.389
6.279,-0.3632
6.280,-3.379
6.281,-11.38
6.282,-15.38
6.283,-14.37
6.284,-16.37
6.285,-15.38
6.286,-17.37
6.287,-12.38
6.288,-9.379
6.289,-2.384
6.290,10.63
6.291,21.63
6.292,15.62
6.293,7.626
6.294,8.621
6.295,16.61
6.296,14.62
6.297,13.61
6.298,3.632
6.299,4.626
6.300,4.626
6.301,0.6316
6.302,1.626
6.303,-2.384
6.304,-9.379
6.305,-16.37
6.306,-15.38
6.307,-10.37
6.308,-9.379
6.309,-13.37
6.310,-10.37
6.311,1.626
6.312,14.62
6.313,19.63
6.314,8.621
6.315,10.63
6.316,7.626
6.317,5.621
6.318,14.62
6.319,18.63
6.320,7.626
6.321,-2.384
6.322,-13.37
6.323,-11.38
6.324,-17.37
6.325,-14.37
6.326,-10.37
6.327,-5.384
6.328,3.632
6.329,6.632
6.330,11.62
6.331,10.63
6.332,6.632
6.333,-9.379
6.334,-19.39
6.335,-21.38
6.336,-13.37
6.337,-16.37
6.338,-10.37
6.339,-0.3632
6.340,-0.3632
6.341,2.621
6.342,13.61
6.343,28.63
6.344,27.62
6.345,19.63
6.346,8.621
6.347,10.63
6.348,5.621
6.349,8.621
6.350,4.626
6.351,3.632
6.352,-1.389
6.353,-8.384
6.354,-14.37
6.355,-22.39
6.356,-28.37
6.357,-32.37
6.358,-27.38
6.359,-20.38
6.360,-14.37
6.361,-9.379
6.362,-2.384
6.363,8.621
6.364,14.62
6.365,21.63
6.366,21.63
6.367,19.63
6.368,23.62
6.369,8.621
6.370,-3.379
6.371,-9.379
6.372,-9.379
6.373,-13.37
6.374,-16.37
6.375,-9.379
6.376,7.626
6.377,16.61
6.378,18.63
6.379,11.62
6.380,8.621
6.381,8.621
6.382,14.62
6.383,29.62
6.384,27.62
6.385,18.63
6.386,6.632
6.387,-1.389
6.388,-10.37
6.389,-11.38
6.390,-12.38
6.391,-18.36
6.392,-17.37
6.393,-7.374
6.394,-10.37
6.395,-2.384
6.396,-2.384
6.397,-4.389
6.398,-8.384
6.399,-6.379
6.400,-13.37
6.401,-16.37
6.402,-11.38
6.403,-6.379
6.404,2.621
6.405,6.632
6.406,4.626
6.407,3.632
6.408,-1.389
6.409,-8.384
6.410,-5.384
6.411,-7.374
6.412,-0.3632
6.413,7.626
6.414,10.63
6.415,15.62
6.416,23.62
6.417,26.62
6.418,24.63
6.419,21.63
6.420,10.63
6.421,-1.389
6.422,-10.37
6.423,-16.37
6.424,-19.39
6.425,-25.37
6.426,-31.37
6.427,-38.38
6.428,-37.39
6.429,-28.37
6.430,-19.39
6.431,-19.39
6.432,-9.379
6.433,2.621
6.434,19.63
6.435,25.63
6.436,19.63
6.437,14.62
6.438,21.63
6.439,26.62
6.440,24.63
6.441,19.63
6.442,8.621
6.443,6.632
6.444,6.632
6.445,10.63
6.446,4.626
6.447,-4.389
6.448,-12.38
6.449,-19.39
6.450,-22.39
6.451,-24.38
6.452,-19.39
6.453,-15.38
6.454,-9.379
6.455,-8.384
6.456,-11.38
6.457,-12.38
6.458,-4.389
6.459,12.62
6.460,31.61
6.461,35.64
6.462,32.62
6.463,26.62
6.464,17.64
6.465,12.62
6.466,2.621
6.467,-3.379
6.468,-2.384
6.469,-10.37
6.470,-14.37
6.471,-14.37
6.472,-10.37
6.473,-11.38
6.474,-8.384
6.475,-2.384
6.476,-5.384
6.477,-17.37
6.478,-25.37
6.479,-31.37
6.480,-33.38
6.481,-24.38
6.482,-15.38
6.483,-20.38
6.484,-10.37
6.485,5.621
6.486,24.63
6.487,37.63
6.488,41.62
6.489,43.63
6.490,39.63
6.491,36.63
6.492,32.62
6.493,25.63
6.494,21.63
6.495,8.621
6.496,5.621
6.497,-5.384
6.498,-13.37
6.499,-16.37
6.500,-14.37
6.501,-14.37
6.502,-14.37
6.503,-12.38
6.504,-13.37
6.505,-15.38
6.506,-14.37
6.507,-13.37
6.508,-13.37
6.509,-9.379
6.510,-8.384
6.511,-11.38
6.512,-8.384
6.513,-1.389
6.514,-0.3632
6.515,0.6316
6.516,-1.389
6.517,-11.38
6.518,-13.37
6.519,-12.38
6.520,-10.37
6.521,-5.384
6.522,2.621
6.523,14.62
6.524,17.64
6.525,23.62
6.526,30.62
6.527,14.62
6.528,2.621
6.529,-4.389
6.530,-12.38
6.531,-21.38
6.532,-25.37
6.533,-19.39
6.534,-11.38
6.535,-7.374
6.536,-0.3632
6.537,5.621
6.538,8.621
6.539,4.626
6.540,-5.384
6.541,-5.384
6.542,-4.389
6.543,0.6316
6.544,5.621
6.545,-1.389
6.546,-7.374
6.547,-13.37
6.548,-3.379
6.549,8.621
6.550,21.63
6.551,18.63
6.552,8.621
6.553,8.621
6.554,14.62
6.555,25.63
6.556,30.62
6.557,18.63
6.558,10.63
6.559,1.626
6.560,-1.389
6.561,-9.379
6.562,-17.37
6.563,-19.39
6.564,-18.36
6.565,-14.37
6.566,-19.39
6.567,-16.37
6.568,-2.384
6.569,11.62
6.570,17.64
6.571,22.63
6.572,22.63
6.573,16.61
6.574,10.63
6.575,-0.3632
6.576,-13.37
6.577,-20.38
6.578,-27.38
6.579,-29.38
6.580,-22.39
6.581,-20.38
6.582,-9.379
6.583,-1.389
6.584,7.626
6.585,17.64
6.586,24.63
6.587,21.63
6.588,2.621
6.589,-4.389
6.590,-11.38
6.591,-21.38
6.592,-31.37
6.593,-28.37
6.594,-23.38
6.595,-17.37
6.596,-10.37
6.597,3.632
6.598,8.621
6.599,8.621
6.600,23.62
6.601,43.63
6.602,47.62
6.603,35.64
6.604,28.63
6.605,22.63
6.606,17.64
6.607,8.621
6.608,1.626
6.609,-4.389
6.610,-10.37
6.611,-20.38
6.612,-34.37
6.613,-43.37
6.614,-38.38
6.615,-36.36
6.616,-32.37
6.617,-33.38
6.618,-26.38
6.619,-16.37
6.620,-1.389
6.621,15.62
6.622,26.62
6.623,45.62
6.624,51.62
6.625,43.63
6.626,37.63
6.627,24.63
6.628,15.62
6.629,3.632
6.630,-1.389
6.631,-3.379
6.632,-7.374
6.633,-5.384
6.634,2.621
6.635,1.626
6.636,2.621
6.637,3.632
6.638,1.626
6.639,-2.384
6.640,-14.37
6.641,-26.38
6.642,-24.38
6.643,-29.38
6.644,-24.38
6.645,-13.37
6.646,-11.38
6.647,-14.37
6.648,-13.37
6.649,-8.384
6.650,1.626
6.651,8.621
6.652,13.61
6.653,3.632
6.654,-3.379
6.655,-7.374
6.656,-3.379
6.657,0.6316
6.658,10.63
6.659,16.61
6.660,11.62
6.661,7.626
6.662,8.621
6.663,10.63
6.664,9.616
6.665,4.626
6.666,0.6316
6.667,-9.379
6.668,-12.38
6.669,-16.37
6.670,-23.38
6.671,-23.38
6.672,-9.379
6.673,2.621
6.674,8.621
6.675,5.621
6.676,10.63
6.677,11.62
6.678,7.626
6.679,5.621
6.680,-1.389
6.681,3.632
6.682,1.626
6.683,1.626
6.684,-0.3632
6.685,-10.37
6.686,-15.38
6.687,-10.37
6.688,7.626
6.689,17.64
6.690,13.61
6.691,0.6316
6.692,2.621
6.693,12.62
6.694,18.63
6.695,12.62
6.696,13.61
6.697,8.621
6.698,1.626
6.699,-8.384
6.700,-9.379
6.701,-23.38
6.702,-29.38
6.703,-21.38
6.704,-21.38
6.705,-21.38
6.706,-19.39
6.707,-3.379
6.708,24.63
6.709,41.62
6.710,34.61
6.711,21.63
6.712,6.632
6.713,1.626
6.714,-5.384
6.715,-8.384
6.716,-8.384
6.717,-2.384
6.718,-7.374
6.719,-11.38
6.720,-5.384
6.721,1.626
6.722,-1.389
6.723,-5.384
6.724,-2.384
6.725,5.621
6.726,4.626
6.727,4.626
6.728,1.626
6.729,3.632
6.730,-0.3632
6.731,-3.379
6.732,-4.389
6.733,-4.389
6.734,-8.384
6.735,-12.38
6.736,-9.379
6.737,-3.379
6.738,-4.389
6.739,-7.374
6.740,-9.379
6.741,-10.37
6.742,-7.374
6.743,-6.379
6.744,-3.379
6.745,-3.379
6.746,-7.374
6.747,-2.384
6.748,7.626
6.749,17.64
6.750,11.62
6.751,0.6316
6.752,-12.38
6.753,-18.36
6.754,-21.38
6.755,-14.37
6.756,-8.384
6.757,1.626
6.758,7.626
6.759,5.621
6.760,8.621
6.761,15.62
6.762,19.63
6.763,30.62
6.764,33.62
6.765,30.62
6.766,28.63
6.767,28.63
6.768,24.63
6.769,12.62
6.770,2.621
6.771,-11.38
6.772,-21.38
6.773,-30.38
6.774,-35.37
6.775,-40.39
6.776,-39.38
6.777,-30.38
6.778,-25.37
6.779,-24.38
6.780,-11.38
6.781,8.621
6.782,24.63
6.783,38.62
6.784,44.62
6.785,35.64
6.786,31.61
6.787,20.62
6.788,10.63
6.789,2.621
6.790,-0.3632
6.791,-4.389
6.792,-9.379
6.793,-9.379
6.794,-13.37
6.795,-12.38
6.796,-10.37
6.797,-7.374
6.798,-10.37
6.799,-10.37
6.800,-10.37
6.801,-11.38
6.802,-20.38
6.803,-24.38
6.804,-25.37
6.805,-21.38
6.806,-18.36
6.807,-15.38
6.808,-11.38
6.809,2.621
6.810,15.62
6.811,24.63
6.812,24.63
6.813,8.621
6.814,3.632
6.815,8.621
6.816,16.61
6.817,15.62
6.818,10.63
6.819,16.61
6.820,18.63
6.821,22.63
6.822,21.63
6.823,13.61
6.824,11.62
6.825,-1.389
6.826,-5.384
6.827,-17.37
6.828,-24.38
6.829,-28.37
6.830,-27.38
6.831,-23.38
6.832,-17.37
6.833,-20.38
6.834,-19.39
6.835,-16.37
6.836,-10.37
6.837,0.6316
6.838,0.6316
6.839,-7.374
6.840,-16.37
6.841,-16.37
6.842,-6.379
6.843,16.61
6.844,34.61
6.845,38.62
6.846,42.63
6.847,48.62
6.848,47.62
6.849,41.62
6.850,31.61
6.851,16.61
6.852,8.621
6.853,-2.384
6.854,-11.38
6.855,-18.36
6.856,-21.38
6.857,-28.37
6.858,-31.37
6.859,-20.38
6.860,-10.37
6.861,-3.379
6.862,0.6316
6.863,-2.384
6.864,-11.38
6.865,-19.39
6.866,-22.39
6.867,-21.38
6.868,-10.37
6.869,-15.38
6.870,-16.37
6.871,-7.374
6.872,8.621
6.873,21.63
6.874,16.61
6.875,14.62
6.876,11.62
6.877,12.62
6.878,17.64
6.879,16.61
6.880,16.61
6.881,8.621
6.882,-0.3632
6.883,-5.384
6.884,-10.37
6.885,-14.37
6.886,-22.39
6.887,-23.38
6.888,-24.38
6.889,-23.38
6.890,-15.38
6.891,-9.379
6.892,-2.384
6.893,6.632
6.894,12.62
6.895,16.61
6.896,19.63
6.897,19.63
6.898,11.62
6.899,21.63
6.900,24.63
6.901,14.62
6.902,13.61
6.903,8.621
6.904,8.621
6.905,4.626
6.906,-0.3632
6.907,-7.374
6.908,-4.389
6.909,-3.379
6.910,-6.379
6.911,-14.37
6.912,-14.37
6.913,-14.37
6.914,-15.38
6.915,-24.38
6.916,-29.38
6.917,-33.38
6.918,-33.38
6.919,-21.38
6.920,-4.389
6.921,10.63
6.922,16.61
6.923,17.64
6.924,24.63
6.925,26.62
6.926,19.63
6.927,10.63
6.928,0.6316
6.929,3.632
6.930,-10.37
6.931,-14.37
6.932,-18.36
6.933,-19.39
6.934,-11.38
6.935,5.621
6.936,22.63
6.937,29.62
6.938,32.62
6.939,29.62
6.940,24.63
6.941,17.64
6.942,10.63
6.943,1.626
6.944,-8.384
6.945,-14.37
6.946,-17.37
6.947,-16.37
6.948,-13.37
6.949,-14.37
6.950,-9.379
6.951,-7.374
6.952,-5.384
6.953,0.6316
6.954,-2.384
6.955,-2.384
6.956,-4.389
6.957,-9.379
6.958,-5.384
6.959,-6.379
6.960,-5.384
6.961,-7.374
6.962,-8.384
6.963,-2.384
6.964,10.63
6.965,22.63
6.966,13.61
6.967,2.621
6.968,-1.389
6.969,-6.379
6.970,-11.38
6.971,-12.38
6.972,-7.374
6.973,-0.3632
6.974,1.626
6.975,7.626
6.976,6.632
6.977,3.632
6.978,11.62
6.979,15.62
6.980,16.61
6.981,13.61
6.982,7.626
6.983,4.626
6.984,-0.3632
6.985,-1.389
6.986,-8.384
6.987,-21.38
6.988,-26.38
6.989,-23.38
6.990,-21.38
6.991,-17.37
6.992,-12.38
6.993,-8.384
6.994,5.621
6.995,27.62
6.996,37.63
6.997,38.62
6.998,32.62
6.999,24.63
7.000,11.62
7.001,8.621
7.002,3.632
7.003,-2.384
7.004,-3.379
7.005,-11.38
7.006,-15.38
7.007,-15.38
7.008,-21.38
7.009,-21.38
7.010,-18.36
7.011,-16.37
7.012,-14.37
7.013,-10.37
7.014,-5.384
7.015,0.6316
7.016,3.632
7.017,0.6316
7.018,-2.384
7.019,-0.3632
7.020,-2.384
7.021,-6.379
7.022,-5.384
7.023,-9.379
7.024,-5.384
7.025,-13.37
7.026,-13.37
7.027,-10.37
7.028,-2.384
7.029,8.621
7.030,17.64
7.031,22.63
7.032,23.62
7.033,24.63
7.034,23.62
7.035,18.63
7.036,17.64
7.037,15.62
7.038,18.63
7.039,11.62
7.040,6.632
7.041,0.6316
7.042,-0.3632
7.043,1.626
7.044,1.626
7.045,-4.389
7.046,-7.374
7.047,-13.37
7.048,-13.37
7.049,-14.37
7.050,-12.38
7.051,-7.374
7.052,-7.374
7.053,-3.379
7.054,-9.379
7.055,-18.36
7.056,-28.37
7.057,-45.38
7.058,-49.37
7.059,-39.38
7.060,-23.38
7.061,-11.38
7.062,0.6316
7.063,20.62
7.064,47.62
7.065,57.63
7.066,61.63
7.067,49.61
7.068,32.62
7.069,14.62
7.070,3.632
7.071,-0.3632
7.072,-2.384
7.073,-13.37
7.074,-20.38
7.075,-25.37
7.076,-23.38
7.077,-18.36
7.078,-13.37
7.079,-8.384
7.080,-3.379
7.081,-1.389
7.082,0.6316
7.083,3.632
7.084,8.621
7.085,10.63
7.086,7.626
7.087,3.632
7.088,-0.3632
7.089,0.6316
7.090,-0.3632
7.091,-3.379
7.092,0.6316
7.093,-3.379
7.094,-7.374
7.095,-8.384
7.096,-5.384
7.097,-2.384
7.098,1.626
7.099,-0.3632
7.100,7.626
7.101,7.626
7.102,0.6316
7.103,-1.389
7.104,0.6316
7.105,-1.389
7.106,-5.384
7.107,-6.379
7.108,-2.384
7.109,-5.384
7.110,-12.38
7.111,-16.37
7.112,-18.36
7.113,-12.38
7.114,-7.374
7.115,0.6316
7.116,8.621
7.117,19.63
7.118,29.62
7.119,23.62
7.120,17.64
7.121,14.62
7.122,10.63
7.123,8.621
7.124,4.626
7.125,4.626
7.126,0.6316
7.127,-5.384
7.128,-13.37
7.129,-19.39
7.130,-17.37
7.131,-17.37
7.132,-13.37
7.133,-3.379
7.134,-0.3632
7.135,2.621
7.136,6.632
7.137,8.621
7.138,7.626
7.139,3.632
7.140,-1.389
7.141,-8.384
7.142,-16.37
7.143,-20.38
7.144,-16.37
7.145,-9.379
7.146,-9.379
7.147,-4.389
7.148,-1.389
7.149,4.626
7.150,13.61
7.151,16.61
7.152,15.62
7.153,18.63
7.154,15.62
7.155,10.63
7.156,-1.389
7.157,-10.37
7.158,-23.38
7.159,-24.38
7.160,-25.37
7.161,-18.36
7.162,-8.384
7.163,6.632
7.164,21.63
7.165,33.62
7.166,33.62
7.167,28.63
7.168,23.62
7.169,20.62
7.170,18.63
7.171,8.621
7.172,2.621
7.173,-6.379
7.174,-9.379
7.175,-8.384
7.176,-7.374
7.177,-10.37
7.178,-13.37
7.179,-11.38
7.180,-7.374
7.181,-7.374
7.182,-10.37
7.183,-9.379
7.184,-7.374
7.185,-2.384
7.186,-8.384
7.187,-10.37
7.188,-10.37
7.189,-12.38
7.190,-12.38
7.191,-8.384
7.192,-8.384
7.193,-7.374
7.194,-10.37
7.195,-14.37
7.196,-14.37
7.197,-12.38
7.198,-4.389
7.199,1.626
7.200,9.616
7.201,14.62
7.202,21.63
7.203,22.63
7.204,26.62
7.205,21.63
7.206,20.62
7.207,13.61
7.208,7.626
7.209,6.632
7.210,2.621
7.211,-0.3632
7.212,0.6316
7.213,-1.389
7.214,-1.389
7.215,-2.384
7.216,-2.384
7.217,-5.384
7.218,-5.384
7.219,-2.384
7.220,-5.384
7.221,-2.384
7.222,-5.384
7.223,-0.3632
7.224,-6.379
7.225,-6.379
7.226,-5.384
7.227,-2.384
7.228,-5.384
7.229,-2.384
7.230,-4.389
7.231,-5.384
7.232,-7.374
7.233,-2.384
7.234,-2.384
7.235,-1.389
7.236,-1.389
7.237,0.6316
7.238,-1.389
7.239,-1.389
7.240,1.626
7.241,-2.384
7.242,1.626
7.243,-2.384
7.244,1.626
7.245,-1.389
7.246,-0.3632
7.247,-3.379
7.248,-1.389
7.249,-1.389
7.250,-0.3632
7.251,-4.389
7.252,-4.389
7.253,-3.379
7.254,0.6316
7.255,-0.3632
7.256,2.621
7.257,5.621
7.258,4.626
7.259,6.632
7.260,5.621
7.261,8.621
7.262,-0.3632
7.263,-4.389
7.264,-11.38
7.265,-16.37
7.266,-25.37
7.267,-22.39
7.268,-19.39
7.269,-8.384
7.270,-3.379
7.271,6.632
7.272,8.621
7.273,15.62
7.274,19.63
7.275,22.63
7.276,22.63
7.277,18.63
7.278,18.63
7.279,18.63
7.280,16.61
7.281,8.621
7.282,4.626
7.283,-2.384
7.284,-6.379
7.285,-5.384
7.286,-3.379
7.287,-10.37
7.288,-11.38
7.289,-10.37
7.290,-8.384
7.291,-7.374
7.292,-6.379
7.293,-6.379
7.294,-4.389
7.295,-2.384
7.296,-5.384
7.297,-5.384
7.298,-16.37
7.299,-28.37
7.300,-36.36
7.301,-48.38
7.302,-46.37
7.303,-38.38
7.304,-46.37
7.305,-41.38
7.306,-26.38
7.307,-5.384
7.308,6.632
7.309,1.626
7.310,7.626
7.311,14.62
7.312,32.62
7.313,21.63
7.314,27.62
7.315,20.62
7.316,-12.38
7.317,-70.37
7.318,-52.37
7.319,-26.38
7.320,-10.37
7.321,8.621
7.322,-7.374
7.323,-42.38
7.324,-14.37
7.325,28.63
7.326,59.62
7.327,37.63
7.328,-2.384
7.329,-14.37
7.330,-31.37
7.331,-57.38
7.332,5.621
7.333,40.63
7.334,75.63
7.335,34.61
7.336,-27.38
7.337,-62.38
7.338,-4.389
7.339,30.62
7.340,70.61
7.341,84.61
7.342,57.63
7.343,66.62
7.344,28.63
7.345,13.61
7.346,22.63
7.347,53.64
7.348,72.63
7.349,56.62
7.350,59.62
7.351,52.61
7.352,-0.3632
7.353,-14.37
7.354,0.6316
7.355,30.62
7.356,53.64
7.357,52.61
7.358,66.62
7.359,45.62
7.360,8.621
7.361,-24.38
7.362,-107.4
7.363,-150.4
7.364,-153.4
7.365,-122.4
7.366,-93.38
7.367,-79.37
7.368,-51.38
7.369,-3.379
7.370,55.63
7.371,21.63
7.372,13.61
7.373,55.63
7.374,82.63
7.375,39.63
7.376,59.62
7.377,72.63
7.378,55.63
7.379,1.626
7.380,-87.38
7.381,-67.37
7.382,-14.37
7.383,2.621
7.384,-33.38
7.385,-105.4
7.386,-99.38
7.387,-47.38
7.388,-2.384
7.389,8.621
7.390,24.63
7.391,24.63
7.392,28.63
7.393,49.61
7.394,61.63
7.395,76.63
7.396,110.6
7.397,72.63
7.398,59.62
7.399,24.63
7.400,-17.37
7.401,-35.37
7.402,-71.37
7.403,-118.4
7.404,-150.4
7.405,-175.4
7.406,-139.4
7.407,-69.38
7.408,-5.384
7.409,41.62
7.410,41.62
7.411,39.63
7.412,56.62
7.413,67.61
7.414,62.62
7.415,85.63
7.416,105.6
7.417,139.6
7.418,134.6
7.419,101.6
7.420,44.62
7.421,-1.389
7.422,-29.38
7.423,-33.38
7.424,-28.37
7.425,-58.39
7.426,-127.4
7.427,-165.4
7.428,-85.37
7.429,-34.37
7.430,-46.37
7.431,-120.4
7.432,-179.4
7.433,-151.4
7.434,-59.38
7.435,-9.379
7.436,67.61
7.437,136.6
7.438,159.6
7.439,133.6
7.440,61.63
7.441,13.61
7.442,-21.38
7.443,-39.38
7.444,-10.37
7.445,-31.37
7.446,-46.37
7.447,-33.38
7.448,-67.37
7.449,-98.38
7.450,-99.38
7.451,-51.38
7.452,3.632
7.453,32.62
7.454,44.62
7.455,45.62
7.456,55.63
7.457,61.63
7.458,78.63
7.459,106.6
7.460,128.6
7.461,70.61
7.462,60.63
7.463,-5.384
7.464,-8.384
7.465,-56.38
7.466,54.63
7.467,94.63
7.468,94.63
7.469,88.61
7.470,21.63
7.471,-65.38
7.472,-108.4
7.473,-99.38
7.474,-51.38
7.475,22.63
7.476,67.61
7.477,83.62
7.478,103.6
7.479,88.61
7.480,67.61
7.481,41.62
7.482,31.61
7.483,-46.37
7.484,-93.38
7.485,-142.4
7.486,-152.4
7.487,-129.4
7.488,-126.4
7.489,-110.4
7.490,-71.37
7.491,17.64
7.492,63.62
7.493,40.63
7.494,-52.37
7.495,-140.4
7.496,-161.4
7.497,-151.4
7.498,-208.4
7.499,-170.4
7.500,-121.4
7.501,-40.39
7.502,52.61
7.503,125.6
7.504,152.6
7.505,152.6
7.506,222.6
7.507,277.6
7.508,340.6
7.509,324.6
7.510,158.6
7.511,-34.37
7.512,-116.4
7.513,-117.4
7.514,-45.38
7.515,24.63
7.516,66.62
7.517,90.63
7.518,-7.374
7.519,-12.38
7.520,-8.384
7.521,28.63
7.522,102.6
7.523,130.6
7.524,34.61
7.525,-49.37
7.526,-90.39
7.527,-49.37
7.528,-16.37
7.529,31.61
7.530,22.63
7.531,12.62
7.532,-15.38
7.533,-31.37
7.534,-43.37
7.535,-27.38
7.536,-21.38
7.537,-45.38
7.538,-55.39
7.539,-90.39
7.540,-153.4
7.541,-165.4
7.542,-199.4
7.543,-217.4
7.544,-255.4
7.545,-180.4
7.546,-100.4
7.547,-13.37
7.548,62.62
7.549,75.63
7.550,92.62
7.551,-1.389
7.552,-13.37
7.553,-30.38
7.554,40.63
7.555,59.62
7.556,101.6
7.557,151.6
7.558,189.6
7.559,206.6
7.560,215.6
7.561,149.6
7.562,101.6
7.563,75.63
7.564,68.62
7.565,-15.38
7.566,-107.4
7.567,-187.4
7.568,-280.4
7.569,-305.4
7.570,-176.4
7.571,0.6316
7.572,103.6
7.573,152.6
7.574,135.6
7.575,140.6
7.576,152.6
7.577,175.6
7.578,184.6
7.579,184.6
7.580,141.6
7.581,61.63
7.582,3.632
7.583,-6.379
7.584,4.626
7.585,-3.379
7.586,-17.37
7.587,-53.37
7.588,-76.39
7.589,-104.4
7.590,-145.4
7.591,-166.4
7.592,-228.4
7.593,-228.4
7.594,-207.4
7.595,-168.4
7.596,-165.4
7.597,-78.38
7.598,38.62
7.599,88.61
7.600,123.6
7.601,131.6
7.602,119.6
7.603,74.62
7.604,20.62
7.605,-48.38
7.606,-67.37
7.607,-31.37
7.608,26.62
7.609,75.63
7.610,100.6
7.611,127.6
7.612,143.6
7.613,143.6
7.614,136.6
7.615,99.61
7.616,29.62
7.617,-63.38
7.618,-91.39
7.619,-167.4
7.620,-210.4
7.621,-229.4
7.622,-150.4
7.623,-49.37
7.624,10.63
7.625,98.62
7.626,144.6
7.627,158.6
7.628,151.6
7.629,120.6
7.630,-15.38
7.631,-142.4
7.632,-150.4
7.633,-74.38
7.634,3.632
7.635,45.62
7.636,90.63
7.637,83.62
7.638,61.63
7.639,29.62
7.640,26.62
7.641,27.62
7.642,3.632
7.643,-13.37
7.644,-31.37
7.645,-58.39
7.646,-68.37
7.647,-156.4
7.648,-142.4
7.649,-121.4
7.650,-60.38
7.651,-63.38
7.652,-56.38
7.653,-51.38
7.654,-46.37
7.655,-10.37
7.656,72.63
7.657,126.6
7.658,126.6
7.659,107.6
7.660,96.63
7.661,114.6
7.662,104.6
7.663,35.64
7.664,8.621
7.665,0.6316
7.666,24.63
7.667,-9.379
7.668,-24.38
7.669,-15.38
7.670,26.62
7.671,68.62
7.672,68.62
7.673,39.63
7.674,-0.3632
7.675,-115.4
7.676,-120.4
7.677,-141.4
7.678,-189.4
7.679,-167.4
7.680,-95.38
7.681,3.632
7.682,13.61
7.683,-9.379
7.684,-165.4
7.685,-184.4
7.686,-71.37
7.687,20.62
7.688,125.6
7.689,139.6
7.690,170.6
7.691,107.6
7.692,48.62
7.693,81.61
7.694,141.6
7.695,174.6
7.696,195.6
7.697,179.6
7.698,146.6
7.699,72.63
7.700,-0.3632
7.701,-20.38
7.702,-58.39
7.703,-95.38
7.704,-138.4
7.705,-173.4
7.706,-131.4
7.707,-70.37
7.708,28.63
7.709,16.61
7.710,-123.4
7.711,-226.4
7.712,-188.4
7.713,-70.37
7.714,63.62
7.715,134.6
7.716,169.6
7.717,156.6
7.718,96.63
7.719,44.62
7.720,94.63
7.721,87.61
7.722,86.62
7.723,51.62
7.724,-30.38
7.725,-69.38
7.726,-73.39
7.727,-34.37
7.728,-37.39
7.729,-175.4
7.730,-167.4
7.731,-96.38
7.732,-90.39
7.733,-82.37
7.734,-86.37
7.735,-25.37
7.736,62.62
7.737,132.6
7.738,191.6
7.739,187.6
7.740,174.6
7.741,32.62
7.742,-50.37
7.743,-90.39
7.744,-76.39
7.745,-35.37
7.746,-96.38
7.747,-114.4
7.748,-62.38
7.749,-55.39
7.750,-28.37
7.751,22.63
7.752,53.64
7.753,75.63
7.754,64.63
7.755,54.63
7.756,50.62
7.757,54.63
7.758,19.63
7.759,-32.37
7.760,-87.38
7.761,-130.4
7.762,-186.4
7.763,-111.4
7.764,-56.38
7.765,33.62
7.766,140.6
7.767,147.6
7.768,189.6
7.769,232.6
7.770,239.6
7.771,108.6
7.772,-62.38
7.773,-212.4
7.774,-229.4
7.775,-125.4
7.776,-53.37
7.777,-42.38
7.778,-64.37
7.779,-45.38
7.780,-20.38
7.781,-50.37
7.782,39.63
7.783,136.6
7.784,140.6
7.785,140.6
7.786,114.6
7.787,96.63
7.788,-4.389
7.789,-95.38
7.790,-82.37
7.791,-58.39
7.792,-16.37
7.793,-14.37
7.794,4.626
7.795,7.626
7.796,-28.37
7.797,-98.38
7.798,-129.4
7.799,-83.38
7.800,-36.36
7.801,-0.3632
7.802,-35.37
7.803,-41.38
7.804,-37.39
7.805,-18.36
7.806,32.62
7.807,114.6
7.808,129.6
7.809,96.63
7.810,51.62
7.811,-6.379
7.812,-48.38
7.813,-39.38
7.814,14.62
7.815,-90.39
7.816,-60.38
7.817,-62.38
7.818,-17.37
7.819,23.62
7.820,57.63
7.821,87.61
7.822,91.63
7.823,46.63
7.824,6.632
7.825,-9.379
7.826,-55.39
7.827,-210.4
7.828,-269.4
7.829,-283.4
7.830,-279.4
7.831,-87.38
7.832,85.63
7.833,194.6
7.834,216.6
7.835,290.6
7.836,279.6
7.837,257.6
7.838,188.6
7.839,143.6
7.840,122.6
7.841,91.63
7.842,34.61
7.843,-20.38
7.844,-98.38
7.845,-99.38
7.846,-74.38
7.847,-69.38
7.848,-118.4
7.849,-111.4
7.850,-55.39
7.851,-29.38
7.852,-48.38
7.853,-23.38
7.854,41.62
7.855,108.6
7.856,124.6
7.857,70.61
7.858,31.61
7.859,-2.384
7.860,-23.38
7.861,-41.38
7.862,-2.384
7.863,17.64
7.864,-12.38
7.865,-63.38
7.866,-81.38
7.867,-107.4
7.868,-127.4
7.869,-130.4
7.870,-137.4
7.871,-104.4
7.872,-78.38
7.873,-44.38
7.874,-6.379
7.875,10.63
7.876,-43.37
7.877,-131.4
7.878,-144.4
7.879,-14.37
7.880,95.62
7.881,122.6
7.882,30.62
7.883,-52.37
7.884,-28.37
7.885,68.62
7.886,135.6
7.887,226.6
7.888,146.6
7.889,130.6
7.890,183.6
7.891,145.6
7.892,36.63
7.893,4.626
7.894,-23.38
7.895,-146.4
7.896,-189.4
7.897,-59.38
7.898,61.63
7.899,121.6
7.900,140.6
7.901,101.6
7.902,26.62
7.903,-150.4
7.904,-158.4
7.905,-29.38
7.906,72.63
7.907,104.6
7.908,99.61
7.909,62.62
7.910,34.61
7.911,28.63
7.912,0.6316
7.913,-34.37
7.914,-84.38
7.915,-83.38
7.916,-71.37
7.917,-59.38
7.918,-71.37
7.919,-64.37
7.920,-44.38
7.921,-19.39
7.922,-3.379
7.923,32.62
7.924,21.63
7.925,61.63
7.926,65.62
7.927,51.62
7.928,-25.37
7.929,-28.37
7.930,-60.38
7.931,-137.4
7.932,-174.4
7.933,-198.4
7.934,-208.4
7.935,-104.4
7.936,-39.38
7.937,24.63
7.938,83.62
7.939,174.6
7.940,195.6
7.941,175.6
7.942,82.63
7.943,85.63
7.944,107.6
7.945,115.6
7.946,124.6
7.947,113.6
7.948,-36.36
7.949,-226.4
7.950,-241.4
7.951,-234.4
7.952,-224.4
7.953,-156.4
7.954,-70.37
7.955,-9.379
7.956,78.63
7.957,152.6
7.958,126.6
7.959,78.63
7.960,116.6
7.961,166.6
7.962,264.6
7.963,255.6
7.964,130.6
7.965,48.62
7.966,2.621
7.967,-44.38
7.968,-89.37
7.969,-117.4
7.970,-122.4
7.971,-126.4
7.972,-119.4
7.973,-114.4
7.974,-66.38
7.975,-59.38
7.976,-60.38
7.977,-57.38
7.978,-2.384
7.979,18.63
7.980,10.63
7.981,-11.38
7.982,-123.4
7.983,-83.38
7.984,-78.38
7.985,-133.4
7.986,-103.4
7.987,-64.37
7.988,55.63
7.989,121.6
7.990,109.6
7.991,72.63
7.992,84.61
7.993,162.6
7.994,218.6
7.995,218.6
7.996,120.6
7.997,22.63
7.998,-20.38
7.999,-62.38
8.000,-110.4
8.001,-65.38
8.002,-30.38
8.003,-64.37
8.004,-28.37
8.005,-20.38
8.006,-39.38
8.007,11.62
8.008,98.62
8.009,144.6
8.010,94.63
8.011,3.632
8.012,-74.38
8.013,-90.39
8.014,-181.4
8.015,-369.4
8.016,-343.4
8.017,-263.4
8.018,-91.39
8.019,130.6
8.020,246.6
8.021,287.6
8.022,163.6
8.023,130.6
8.024,260.6
8.025,268.6
8.026,239.6
8.027,147.6
8.028,58.63
8.029,10.63
8.030,-27.38
8.031,-74.38
8.032,-55.39
8.033,-31.37
8.034,-45.38
8.035,-61.37
8.036,-123.4
8.037,-183.4
8.038,-135.4
8.039,-82.37
8.040,-24.38
8.041,-40.39
8.042,-62.38
8.043,-80.38
8.044,-31.37
8.045,35.64
8.046,67.61
8.047,46.63
8.048,55.63
8.049,49.61
8.050,29.62
8.051,-4.389
8.052,-71.37
8.053,-103.4
8.054,-80.38
8.055,10.63
8.056,49.61
8.057,27.62
8.058,-16.37
8.059,-61.37
8.060,-86.37
8.061,-14.37
8.062,26.62
8.063,50.62
8.064,38.62
8.065,-21.38
8.066,-40.39
8.067,-75.38
8.068,-47.38
8.069,-4.389
8.070,-52.37
8.071,-116.4
8.072,-59.38
8.073,-36.36
8.074,56.62
8.075,116.6
8.076,184.6
8.077,176.6
8.078,136.6
8.079,32.62
8.080,-65.38
8.081,-5.384
8.082,26.62
8.083,22.63
8.084,-19.39
8.085,-48.38
8.086,-52.37
8.087,42.63
8.088,138.6
8.089,142.6
8.090,74.62
8.091,24.63
8.092,-51.38
8.093,-23.38
8.094,8.621
8.095,22.63
8.096,13.61
8.097,-31.37
8.098,-42.38
8.099,-19.39
8.100,-13.37
8.101,-31.37
8.102,-47.38
8.103,-80.38
8.104,-51.38
8.105,-7.374
8.106,-13.37
8.107,-21.38
8.108,-10.37
8.109,37.63
8.110,21.63
8.111,4.626
8.112,-74.38
8.113,-126.4
8.114,-170.4
8.115,-141.4
8.116,7.626
8.117,44.62
8.118,-11.38
8.119,-83.38
8.120,-156.4
8.121,-198.4
8.122,-138.4
8.123,-27.38
8.124,39.63
8.125,129.6
8.126,100.6
8.127,184.6
8.128,245.6
8.129,268.6
8.130,194.6
8.131,106.6
8.132,41.62
8.133,-4.389
8.134,-28.37
8.135,-18.36
8.136,5.621
8.137,-42.38
8.138,20.62
8.139,49.61
8.140,-40.39
8.141,2.621
8.142,-13.37
8.143,-70.37
8.144,-117.4
8.145,-13.37
8.146,50.62
8.147,40.63
8.148,55.63
8.149,47.62
8.150,36.63
8.151,14.62
8.152,-22.39
8.153,-66.38
8.154,-132.4
8.155,-155.4
8.156,-121.4
8.157,-4.389
8.158,54.63
8.159,57.63
8.160,-32.37
8.161,-57.38
8.162,3.632
8.163,76.63
8.164,1.626
8.165,-16.37
8.166,16.61
8.167,24.63
8.168,24.63
8.169,84.61
8.170,88.61
8.171,73.63
8.172,72.63
8.173,48.62
8.174,94.63
8.175,47.62
8.176,-27.38
8.177,-77.38
8.178,-119.4
8.179,-79.37
8.180,-17.37
8.181,32.62
8.182,51.62
8.183,8.621
8.184,-31.37
8.185,-13.37
8.186,1.626
8.187,2.621
8.188,-1.389
8.189,-11.38
8.190,-31.37
8.191,-72.36
8.192,-145.4
8.193,-116.4
8.194,-63.38
8.195,13.61
8.196,63.62
8.197,63.62
8.198,78.63
8.199,-19.39
8.200,-169.4
8.201,-213.4
8.202,-268.4
8.203,-170.4
8.204,-66.38
8.205,-20.38
8.206,36.63
8.207,23.62
8.208,17.64
8.209,128.6
8.210,247.6
8.211,284.6
8.212,295.6
8.213,236.6
8.214,180.6
8.215,148.6
8.216,76.63
8.217,-31.37
8.218,-140.4
8.219,-209.4
8.220,-201.4
8.221,-97.37
8.222,-31.37
8.223,-43.37
8.224,-101.4
8.225,-51.38
8.226,61.63
8.227,88.61
8.228,45.62
8.229,-70.37
8.230,-153.4
8.231,-76.39
8.232,37.63
8.233,35.64
8.234,-51.38
8.235,-36.36
8.236,87.61
8.237,100.6
8.238,108.6
8.239,138.6
8.240,76.63
8.241,44.62
8.242,20.62
8.243,-27.38
8.244,-23.38
8.245,6.632
8.246,-3.379
8.247,3.632
8.248,27.62
8.249,-14.37
8.250,-10.37
8.251,-2.384
8.252,-45.38
8.253,-184.4
8.254,-270.4
8.255,-235.4
8.256,-62.38
8.257,23.62
8.258,5.621
8.259,-11.38
8.260,15.62
8.261,98.62
8.262,250.6
8.263,264.6
8.264,142.6
8.265,27.62
8.266,44.62
8.267,61.63
8.268,13.61
8.269,-70.37
8.270,-96.38
8.271,-41.38
8.272,-13.37
8.273,-16.37
8.274,-47.38
8.275,-75.38
8.276,-40.39
8.277,-5.384
8.278,20.62
8.279,5.621
8.280,38.62
8.281,37.63
8.282,22.63
8.283,-18.36
8.284,-43.37
8.285,-88.37
8.286,-144.4
8.287,-245.4
8.288,-250.4
8.289,-119.4
8.290,26.62
8.291,173.6
8.292,207.6
8.293,243.6
8.294,303.6
8.295,273.6
8.296,176.6
8.297,30.62
8.298,-53.37
8.299,-173.4
8.300,-159.4
8.301,-106.4
8.302,-113.4
8.303,-66.38
8.304,-28.37
8.305,-32.37
8.306,-117.4
8.307,-146.4
8.308,-277.4
8.309,-184.4
8.310,27.62
8.311,202.6
8.312,230.6
8.313,242.6
8.314,227.6
8.315,152.6
8.316,87.61
8.317,78.63
8.318,33.62
8.319,-53.37
8.320,-109.4
8.321,-140.4
8.322,-189.4
8.323,-225.4
8.324,-109.4
8.325,-53.37
8.326,12.62
8.327,39.63
8.328,50.62
8.329,66.62
8.330,121.6
8.331,95.62
8.332,120.6
8.333,62.62
8.334,0.6316
8.335,-65.38
8.336,-58.39
8.337,-8.384
8.338,-3.379
8.339,-87.38
8.340,-88.37
8.341,-17.37
8.342,-20.38
8.343,95.62
8.344,128.6
8.345,112.6
8.346,123.6
8.347,124.6
8.348,118.6
8.349,37.63
8.350,-57.38
8.351,-249.4
8.352,-286.4
8.353,-167.4
8.354,-10.37
8.355,61.63
8.356,93.63
8.357,57.63
8.358,2.621
8.359,24.63
8.360,7.626
8.361,-97.37
8.362,-115.4
8.363,-32.37
8.364,23.62
8.365,72.63
8.366,131.6
8.367,154.6
8.368,121.6
8.369,138.6
8.370,110.6
8.371,36.63
8.372,-27.38
8.373,-104.4
8.374,-98.38
8.375,-107.4
8.376,-141.4
8.377,-157.4
8.378,-183.4
8.379,-227.4
8.380,-198.4
8.381,-44.38
8.382,136.6
8.383,218.6
8.384,216.6
8.385,133.6
8.386,125.6
8.387,69.62
8.388,-13.37
8.389,-71.37
8.390,-47.38
8.391,-42.38
8.392,-151.4
8.393,-168.4
8.394,-186.4
8.395,-178.4
8.396,-57.38
8.397,59.62
8.398,118.6
8.399,72.63
8.400,-91.39
8.401,-40.39
8.402,88.61
8.403,172.6
8.404,125.6
8.405,31.61
8.406,30.62
8.407,71.64
8.408,108.6
8.409,55.63
8.410,33.62
8.411,31.61
8.412,61.63
8.413,130.6
8.414,139.6
8.415,85.63
8.416,31.61
8.417,-49.37
8.418,-175.4
8.419,-349.4
8.420,-445.4
8.421,-503.4
8.422,-251.4
8.423,38.62
8.424,175.6
8.425,178.6
8.426,129.6
8.427,222.6
8.428,180.6
8.429,37.63
8.430,-175.4
8.431,-218.4
8.432,-1.389
8.433,192.6
8.434,263.6
8.435,229.6
8.436,136.6
8.437,99.61
8.438,173.6
8.439,168.6
8.440,103.6
8.441,33.62
8.442,-27.38
8.443,-28.37
8.444,-10.37
8.445,6.632
8.446,-64.37
8.447,-104.4
8.448,-60.38
8.449,-23.38
8.450,-17.37
8.451,-92.38
8.452,-67.37
8.453,3.632
8.454,-93.38
8.455,-181.4
8.456,-133.4
8.457,-50.37
8.458,10.63
8.459,-83.38
8.460,-7.374
8.461,99.61
8.462,96.63
8.463,54.63
8.464,11.62
8.465,-78.38
8.466,-128.4
8.467,-149.4
8.468,-72.36
8.469,-20.38
8.470,101.6
8.471,158.6
8.472,132.6
8.473,107.6
8.474,68.62
8.475,117.6
8.476,-21.38
8.477,-123.4
8.478,-176.4
8.479,-258.4
8.480,-178.4
8.481,-160.4
8.482,-17.37
8.483,138.6
8.484,146.6
8.485,112.6
8.486,64.63
8.487,62.62
8.488,88.61
8.489,30.62
8.490,-88.37
8.491,-63.38
8.492,55.63
8.493,-8.384
8.494,-36.36
8.495,-59.38
8.496,-68.37
8.497,-41.38
8.498,-159.4
8.499,23.62
8.500,154.6
8.501,311.6
8.502,362.6
8.503,286.6
8.504,134.6
8.505,44.62
8.506,-97.37
8.507,-177.4
8.508,-151.4
8.509,-84.38
8.510,-59.38
8.511,-55.39
8.512,-19.39
8.513,5.621
8.514,-2.384
8.515,-75.38
8.516,-135.4
8.517,-135.4
8.518,-112.4
8.519,-45.38
8.520,32.62
8.521,75.63
8.522,38.62
8.523,-17.37
8.524,-144.4
8.525,-63.38
8.526,-45.38
8.527,-61.37
8.528,-4.389
8.529,70.61
8.530,66.62
8.531,88.61
8.532,58.63
8.533,69.62
8.534,96.63
8.535,-13.37
8.536,-123.4
8.537,-55.39
8.538,41.62
8.539,-103.4
8.540,-191.4
8.541,-135.4
8.542,-44.38
8.543,96.63
8.544,168.6
8.545,78.63
8.546,174.6
8.547,284.6
8.548,280.6
8.549,136.6
8.550,52.61
8.551,-28.37
8.552,27.62
8.553,20.62
8.554,-14.37
8.555,-95.38
8.556,-85.37
8.557,-83.38
8.558,-244.4
8.559,-209.4
8.560,-149.4
8.561,-126.4
8.562,-100.4
8.563,-2.384
8.564,65.62
8.565,82.63
8.566,107.6
8.567,31.61
8.568,16.61
8.569,106.6
8.570,159.6
8.571,126.6
8.572,38.62
8.573,-1.389
8.574,52.61
8.575,87.61
8.576,70.61
8.577,23.62
8.578,-22.39
8.579,-74.38
8.580,-176.4
8.581,-205.4
8.582,-223.4
8.583,-241.4
8.584,-275.4
8.585,-194.4
8.586,-70.37
8.587,-83.38
8.588,44.62
8.589,199.6
8.590,196.6
8.591,300.6
8.592,272.6
8.593,224.6
8.594,255.6
8.595,172.6
8.596,72.63
8.597,-2.384
8.598,-55.39
8.599,-115.4
8.600,-187.4
8.601,-207.4
8.602,-129.4
8.603,-85.37
8.604,-66.38
8.605,-35.37
8.606,-7.374
8.607,37.63
8.608,37.63
8.609,-71.37
8.610,-73.39
8.611,-58.39
8.612,13.61
8.613,133.6
8.614,155.6
8.615,131.6
8.616,77.62
8.617,2.621
8.618,-64.37
8.619,-74.38
8.620,-101.4
8.621,-45.38
8.622,-16.37
8.623,-55.39
8.624,-115.4
8.625,-74.38
8.626,-19.39
8.627,-22.39
8.628,-20.38
8.629,69.62
8.630,13.61
8.631,-53.37
8.632,-103.4
8.633,5.621
8.634,115.6
8.635,128.6
8.636,130.6
8.637,114.6
8.638,-8.384
8.639,-75.38
8.640,-138.4
8.641,-48.38
8.642,-50.37
8.643,24.63
8.644,13.61
8.645,72.63
8.646,126.6
8.647,101.6
8.648,-170.4
8.649,-301.4
8.650,-197.4
8.651,16.61
8.652,129.6
8.653,218.6
8.654,228.6
8.655,248.6
8.656,223.6
8.657,191.6
8.658,113.6
8.659,74.62
8.660,16.61
8.661,-47.38
8.662,-85.37
8.663,-88.37
8.664,-78.38
8.665,-133.4
8.666,-254.4
8.667,-234.4
8.668,-100.4
8.669,-11.38
8.670,22.63
8.671,-22.39
8.672,64.63
8.673,102.6
8.674,43.63
8.675,-41.38
8.676,-83.38
8.677,-75.38
8.678,-174.4
8.679,-143.4
8.680,-39.38
8.681,61.63
8.682,172.6
8.683,238.6
8.684,171.6
8.685,128.6
8.686,25.63
8.687,8.621
8.688,26.62
8.689,10.63
8.690,-29.38
8.691,-78.38
8.692,-43.37
8.693,-33.38
8.694,-50.37
8.695,-103.4
8.696,-222.4
8.697,-191.4
8.698,-78.38
8.699,-84.38
8.700,-61.37
8.701,54.63
8.702,135.6
8.703,238.6
8.704,264.6
8.705,162.6
8.706,72.63
8.707,-78.38
8.708,-201.4
8.709,-265.4
8.710,-111.4
8.711,28.63
8.712,87.61
8.713,72.63
8.714,100.6
8.715,128.6
8.716,70.61
8.717,-3.379
8.718,8.621
8.719,70.61
8.720,-71.37
8.721,-105.4
8.722,-71.37
8.723,-10.37
8.724,79.63
8.725,99.61
8.726,63.62
8.727,62.62
8.728,-75.38
8.729,-89.37
8.730,-50.37
8.731,4.626
8.732,47.62
8.733,20.62
8.734,12.62
8.735,24.63
8.736,-45.38
8.737,-97.37
8.738,-105.4
8.739,-41.38
8.740,13.61
8.741,-1.389
8.742,-85.37
8.743,-186.4
8.744,-168.4
8.745,-83.38
8.746,-112.4
8.747,-88.37
8.748,36.63
8.749,236.6
8.750,288.6
8.751,224.6
8.752,233.6
8.753,249.6
8.754,168.6
8.755,47.62
8.756,19.63
8.757,-8.384
8.758,-34.37
8.759,-55.39
8.760,-92.38
8.761,-111.4
8.762,-125.4
8.763,-128.4
8.764,-176.4
8.765,-163.4
8.766,-114.4
8.767,-191.4
8.768,-169.4
8.769,-88.37
8.770,98.62
8.771,288.6
8.772,342.6
8.773,182.6
8.774,64.63
8.775,32.62
8.776,56.62
8.777,44.62
8.778,29.62
8.779,-8.384
8.780,-9.379
8.781,-28.37
8.782,-55.39
8.783,-87.38
8.784,-59.38
8.785,-36.36
8.786,-18.36
8.787,-21.38
8.788,-51.38
8.789,-31.37
8.790,37.63
8.791,31.61
8.792,16.61
8.793,2.621
8.794,-7.374
8.795,-5.384
8.796,-59.38
8.797,-60.38
8.798,-34.37
8.799,-10.37
8.800,0.6316
8.801,1.626
8.802,-35.37
8.803,-65.38
8.804,-121.4
8.805,-108.4
8.806,-94.39
8.807,-0.3632
8.808,96.63
8.809,181.6
8.810,183.6
8.811,174.6
8.812,81.61
8.813,24.63
8.814,-0.3632
8.815,-10.37
8.816,-19.39
8.817,-70.37
8.818,-83.38
8.819,-69.38
8.820,-39.38
8.821,-22.39
8.822,-66.38
8.823,-78.38
8.824,-106.4
8.825,-11.38
8.826,82.63
8.827,142.6
8.828,111.6
8.829,49.61
8.830,44.62
8.831,40.63
8.832,-2.384
8.833,6.632
8.834,12.62
8.835,29.62
8.836,20.62
8.837,-39.38
8.838,-21.38
8.839,3.632
